-270
-280
-289
-331
-369
-400
-350
-387
-416
-359
-369
-422
-407
-408
-399
-381
-386
-351
-386
-373
-378
-373
-301
-177
93
628
1157
1454
1517
1341
1082
805
598
444
318
216
155
69
-57
-179
-177
-220
-209
-131
-95
-137
-174
-188
-165
-167
-214
-273
-286
-283
-307
-335
-356
-395
-397
-416
-433
-369
-379
-436
-425
-400
-395
-381
-351
-377
-372
-364
-372
-357
-298
-176
153
724
1279
1497
1443
1247
1018
753
511
325
204
115
60
-50
-170
-173
-151
-229
-132
-34
-44
-69
-86
-151
-159
-227
-281
-299
-279
-306
-286
-342
-336
-332
-291
-318
-335
-352
-333
-299
-322
-328
-306
-273
-293
-272
-218
-92
301
918
1304
1435
1379
1192
918
677
504
353
178
151
100
1
-93
-163
-183
-111
-108
-92
-35
-34
-103
-182
-185
-227
-221
-248
-267
-308
-328
-322
-368
-345
-335
-354
-379
-341
-353
-377
-343
-330
-356
-357
-352
-278
-182
176
711
1192
1367
1329
1171
916
745
545
389
261
174
142
44
-60
-114
-155
-214
-185
-146
-115
-110
-98
-144
-143
-185
-210
-260
-258
-296
-320
-349
-352
-348
-368
-391
-359
-392
-374
-379
-376
-374
-349
-329
-333
-338
-365
-331
-315
-295
-278
-236
-120
241
816
1284
1449
1382
1212
983
715
523
353
252
187
93
39
-41
-135
-193
-198
-187
-115
-103
-78
-103
-131
-182
-175
-225
-295
-284
-264
-279
-292
-322
-353
-353
-354
-365
-377
-364
-365
-380
-375
-375
-365
-368
-303
-288
-316
-284
-221
-220
-144
200
748
1217
1413
1342
1190
927
662
472
354
222
120
50
-35
-121
-157
-215
-181
-148
-109
-95
-69
-115
-131
-150
-179
-197
-235
-262
-289
-265
-292
-332
-320
-304
-314
-322
-316
-322
-318
-326
-295
-291
-252
-265
-303
-280
-213
-152
163
697
1171
1343
1356
1212
936
707
461
330
175
79
43
-9
-103
-160
-174
-106
-118
-95
-59
-41
-21
-85
-144
-135
-207
-225
-219
-239
-268
-292
-302
-344
-313
-298
-310
-322
-343
-358
-319
-303
-338
-314
-262
-226
49
588
1087
1337
1342
1230
1012
766
563
391
246
157
95
52
-1
-81
-140
-200
-166
-115
-115
-69
-47
-106
-144
-166
-190
-215
-232
-295
-349
-319
-324
-347
-340
-341
-354
-314
-323
-341
-339
-349
-329
-335
-295
-262
-321
-338
-315
-293
-271
-143
166
710
1207
1446
1426
1267
1054
825
582
379
314
230
137
63
-26
-69
-113
-175
-137
-75
-88
-84
-107
-112
-128
-159
-183
-195
-238
-294
-320
-319
-341
-371
-354
-352
-381
-357
-377
-387
-345
-350
-348
-334
-335
-323
-315
-327
-329
-277
-268
-204
-47
393
973
1356
1424
1320
1113
883
637
428
264
182
116
96
-11
-56
-107
-183
-162
-138
-96
-63
-75
-50
-111
-141
-186
-219
-227
-261
-280
-284
-310
-326
-334
-375
-345
-320
-366
-384
-331
-304
-312
-315
-319
-330
-299
-245
-158
160
739
1205
1381
1341
1198
932
679
481
294
168
147
94
29
-68
-137
-190
-133
-102
-88
-46
-80
-103
-97
-121
-154
-196
-214
-273
-291
-308
-298
-290
-301
-289
-302
-294
-288
-301
-359
-365
-343
-316
-287
-97
355
876
1187
1335
1265
1056
851
628
445
354
209
187
94
46
-23
-96
-148
-153
-120
-126
-88
-67
-105
-120
-125
-217
-243
-259
-271
-316
-296
-326
-367
-366
-377
-373
-391
-374
-392
-378
-323
-348
-358
-354
-330
-352
-300
-299
-159
186
723
1219
1422
1379
1198
1000
786
562
382
294
226
157
105
8
-48
-104
-148
-139
-115
-95
-83
-89
-132
-177
-180
-197
-265
-280
-301
-325
-361
-365
-351
-365
-422
-408
-358
-324
-367
-396
-421
-414
-377
-328
-329
-348
-369
-316
-349
-341
-304
-247
-220
-21
485
1091
1456
1522
1379
1199
911
653
494
405
321
184
136
95
-6
-112
-152
-155
-142
-125
-106
-95
-105
-108
-139
-192
-220
-255
-271
-293
-312
-359
-353
-374
-396
-393
-392
-388
-401
-374
-380
-375
-375
-392
-384
-375
-348
-311
-334
-335
-318
-254
-193
1
493
1071
1380
1460
1327
1145
885
650
490
325
206
104
73
-13
-86
-128
-184
-146
-92
-62
-63
-56
-103
-127
-166
-193
-218
-279
-319
-323
-309
-310
-312
-299
-301
-328
-346
-367
-321
-305
-359
-342
-342
-309
-297
-324
-291
-288
-274
-237
-149
246
798
1318
1454
1410
1245
974
717
520
367
206
149
122
62
-57
-154
-151
-154
-126
-106
-76
-53
-92
-130
-107
-159
-240
-245
-246
-283
-325
-327
-353
-314
-330
-339
-370
-356
-345
-387
-380
-351
-310
-311
-301
-298
-331
-335
-266
-281
-260
-119
292
870
1329
1481
1419
1236
1038
756
524
402
303
211
141
76
-18
-102
-169
-218
-183
-120
-127
-123
-93
-113
-115
-144
-145
-211
-275
-264
-302
-297
-323
-333
-346
-373
-368
-347
-350
-364
-363
-344
-325
-319
-345
-329
-291
-271
-259
-302
-268
-219
-209
-91
280
852
1286
1437
1364
1189
941
713
524
370
234
158
92
46
-6
-95
-121
-148
-135
-103
-101
-93
-75
-69
-109
-127
-176
-218
-217
-282
-306
-315
-310
-326
-309
-309
-302
-301
-336
-296
-273
-337
-305
-268
-266
-241
-219
-223
-256
-247
-172
9
387
887
1234
1301
1202
1028
816
572
377
255
166
109
54
9
-54
-148
-100
-96
-94
-72
-71
-83
-66
-71
-117
-141
-163
-227
-240
-233
-254
-246
-296
-265
-244
-298
-291
-294
-302
-264
-283
-306
-282
-283
-260
-269
-237
-205
-228
-220
-148
82
503
947
1216
1234
1124
956
696
533
372
277
197
151
104
61
-21
-93
-114
-128
-116
-106
-98
-99
-104
-95
-127
-134
-165
-210
-217
-253
-249
-282
-287
-283
-315
-312
-283
-286
-296
-299
-284
-278
-284
-307
-279
-255
-238
-212
-222
-215
-231
-200
-198
-129
104
545
1001
1241
1253
1125
949
748
550
366
271
198
127
104
50
6
-78
-122
-118
-102
-86
-84
-95
-94
-88
-122
-139
-149
-204
-226
-252
-267
-290
-293
-279
-263
-295
-303
-262
-298
-297
-295
-291
-285
-255
-237
-264
-258
-244
-230
-238
-239
-212
-188
-167
-120
166
642
1088
1254
1222
1083
873
669
479
320
229
149
83
26
-2
-65
-122
-129
-123
-120
-93
-64
-72
-75
-86
-119
-141
-173
-191
-221
-253
-232
-253
-277
-254
-268
-273
-266
-255
-283
-302
-280
-273
-250
-273
-255
-204
-220
-197
-204
-162
-145
22
451
886
1142
1199
1101
941
741
525
365
233
136
81
61
27
-32
-103
-126
-109
-77
-83
-84
-67
-67
-70
-112
-142
-167
-208
-243
-250
-259
-287
-294
-296
-302
-291
-311
-296
-308
-311
-277
-305
-293
-275
-264
-277
-251
-216
-225
-219
-217
-188
-147
93
504
973
1201
1213
1100
939
758
565
430
328
212
143
96
25
-66
-126
-143
-149
-142
-108
-72
-96
-85
-109
-127
-144
-181
-217
-229
-231
-259
-254
-289
-302
-292
-289
-281
-323
-301
-291
-282
-275
-268
-272
-262
-252
-258
-246
-182
-197
-232
-178
-155
-10
385
838
1170
1214
1129
994
812
586
422
285
173
128
68
35
-44
-107
-134
-150
-110
-84
-77
-66
-53
-84
-94
-116
-159
-199
-232
-241
-270
-259
-272
-278
-265
-274
-278
-256
-254
-268
-262
-250
-264
-234
-255
-241
-236
-206
-91
136
599
995
1115
1089
971
800
606
450
329
244
144
124
68
7
-53
-101
-56
-45
-4
41
47
18
0
-18
-24
0
46
132
206
250
271
257
205
157
82
5
-74
-165
-248
-324
-409
-420
-268
141
617
886
995
979
883
733
593
426
335
260
150
18
-71
-246
-391
-309
-195
-84
-45
-143
-302
-336
-311
-233
-145
-81
-99
-91
-48
21
70
101
125
153
167
87
-10
-99
-110
-79
-4
10
47
343
852
1256
1467
1497
1459
1269
1096
834
636
524
346
181
82
-98
-306
-407
-477
-576
-646
-680
-716
-681
-591
-518
-470
-442
-393
-338
-312
-202
-87
-67
-138
-103
-43
43
115
129
52
5
-163
-355
-584
-909
-1157
-1255
-1291
-1274
-1063
-714
-347
-147
-46
-67
-155
-145
-134
-99
-90
-46
-45
-48
-68
-108
-131
-101
-37
-7
11
8
-11
-58
-97
-119
-163
-179
-201
-214
-237
-265
-258
-249
-277
-281
-271
-245
-233
-250
-270
-280
-218
-227
-247
-231
-233
-209
-34
331
735
994
1084
1034
928
765
610
451
369
310
290
234
116
27
-5
-61
-67
-42
9
-8
-10
-2
-2
-85
-120
-146
-178
-188
-226
-226
-233
-276
-264
-265
-268
-273
-271
-268
-304
-339
-308
-289
-273
-248
-257
-265
-277
-259
-239
-50
343
772
1061
1133
1099
964
825
674
571
442
409
333
279
193
70
10
-41
-31
-62
-43
-12
-38
-44
-70
-95
-93
-125
-208
-232
-261
-258
-279
-286
-334
-318
-306
-329
-346
-353
-356
-363
-315
-348
-339
-317
-350
-369
-355
-338
-312
-301
-313
-327
-330
-336
-323
-229
91
628
1020
1235
1259
1165
949
746
602
453
342
293
266
197
86
11
-58
-135
-126
-92
-50
-67
-89
-104
-106
-136
-154
-200
-213
-252
-306
-294
-328
-339
-347
-350
-368
-330
-324
-321
-342
-357
-358
-385
-359
-347
-328
-306
-312
-328
-317
-305
-279
-242
-67
423
927
1184
1232
1126
980
759
549
408
317
209
170
119
49
-48
-102
-115
-90
-54
-41
-28
-55
-62
-100
-120
-136
-194
-234
-222
-252
-257
-272
-291
-274
-301
-300
-351
-351
-325
-327
-341
-336
-321
-315
-321
-312
-332
-312
-235
0
478
934
1189
1259
1158
997
796
621
477
365
312
249
194
106
20
-75
-126
-116
-106
-93
-58
-78
-83
-95
-106
-158
-191
-208
-231
-262
-277
-312
-326
-313
-329
-341
-338
-334
-350
-370
-367
-341
-349
-321
-317
-342
-316
-309
-285
-300
-323
-215
16
564
1064
1290
1345
1252
1065
875
635
481
354
264
193
144
77
-26
-92
-103
-133
-137
-108
-94
-65
-88
-91
-148
-177
-220
-238
-256
-264
-260
-306
-306
-333
-347
-330
-377
-385
-380
-366
-365
-378
-377
-365
-359
-341
-350
-329
-308
-292
-238
-101
386
944
1243
1358
1246
1075
879
674
505
362
248
137
112
62
-56
-109
-140
-141
-122
-100
-57
-76
-94
-106
-160
-180
-225
-273
-309
-335
-360
-355
-368
-392
-376
-402
-474
-729
-1077
-1302
-1378
-1400
-1487
-1410
-1304
-1225
-1208
-1258
-1109
-543
273
773
980
937
830
613
357
248
67
-99
-136
-101
-100
-101
-29
-22
-121
-183
-177
-76
56
234
422
607
657
666
678
613
560
513
463
391
312
225
152
132
80
27
-40
-68
-102
-86
137
600
1105
1384
1431
1364
1183
1019
831
684
577
505
434
354
245
166
98
44
62
19
21
75
101
101
70
51
9
-33
-30
-68
-134
-132
-197
-178
-172
-134
-115
-73
0
68
152
288
498
773
1138
1560
1797
1836
1720
1480
1207
990
826
653
607
552
515
436
298
148
67
-36
-23
118
320
543
630
597
501
393
246
131
49
-63
-82
9
104
209
370
513
550
518
465
404
315
307
533
913
1214
1356
1343
1256
1118
994
882
773
658
527
396
235
7
-151
-258
-322
-371
-415
-502
-547
-597
-668
-748
-828
-898
-949
-994
-1046
-1121
-1169
-1071
-910
-775
-662
-614
-648
-680
-739
-768
-795
-800
-581
-208
250
643
833
875
774
620
420
282
127
-27
-162
-237
-294
-281
-306
-357
-440
-486
-503
-523
-626
-699
-734
-810
-954
-1001
-1036
-1022
-997
-1015
-1100
-1182
-1221
-1192
-1115
-987
-878
-715
-620
-534
-406
-346
-262
-234
-196
-200
-208
-281
-344
-357
-362
-249
85
457
729
812
836
757
622
510
398
369
349
347
282
178
58
-5
14
2
57
91
122
139
151
129
146
125
93
76
34
21
-75
-205
-384
-504
-613
-713
-803
-858
-879
-881
-873
-830
-767
-754
-755
-814
-832
-758
-626
-471
-376
-350
-391
-438
-412
-302
-74
344
811
1041
1091
1054
941
820
703
607
554
507
497
408
358
302
234
225
234
242
236
252
293
241
194
148
133
101
111
84
25
5
3
-26
-59
-86
-81
-94
-131
-159
-159
-167
-195
-208
-206
-200
-202
-210
-226
-231
-240
-234
-242
-232
-211
-217
-266
-280
-254
-117
213
687
1012
1094
1054
944
774
600
496
373
313
296
229
188
93
25
-2
8
-12
-77
-103
-154
-184
-213
-217
-239
-250
-219
-219
-243
-279
-291
-258
-255
-289
-254
-250
-254
-281
-279
-265
-267
-263
-291
-269
-216
-229
-201
-178
-172
-191
-201
-205
-127
169
604
920
1051
1035
924
772
584
435
362
277
235
183
140
53
-55
-41
-90
-108
-75
-17
-20
-56
-26
-60
-112
-116
-178
-178
-203
-256
-270
-288
-266
-282
-292
-289
-317
-343
-323
-341
-353
-322
-301
-312
-336
-298
-306
-274
-261
-297
-287
-258
-262
-262
-282
-270
-184
133
610
974
1088
1070
903
717
566
414
283
225
223
162
86
39
1
-61
-106
-97
-103
-68
-67
-77
-67
-121
-177
-176
-181
-222
-247
-264
-278
-286
-284
-316
-319
-316
-311
-317
-341
-331
-314
-343
-330
-308
-280
-280
-285
-268
-263
-276
-247
-238
-247
-236
-214
-124
189
682
1005
1144
1101
942
741
610
427
286
200
147
128
84
-12
-56
-50
-60
-71
-34
-15
3
0
-34
-48
-100
-120
-141
-135
-164
-204
-232
-223
-214
-217
-226
-225
-221
-215
-215
-210
-216
-224
-250
-206
-192
-195
-177
-226
-203
-210
-180
-32
357
813
1057
1121
1059
906
676
497
330
234
160
106
65
42
-15
-80
-82
-102
-91
-64
-56
-32
-37
-69
-116
-133
-148
-135
-167
-209
-230
-243
-255
-241
-261
-263
-227
-258
-249
-275
-265
-234
-234
-255
-252
-234
-237
-220
-213
-171
86
580
977
1190
1199
1084
890
680
504
321
264
187
155
125
76
41
7
-31
11
-10
-36
-10
-17
-14
4
-58
-106
-140
-146
-168
-191
-217
-275
-258
-273
-288
-268
-281
-321
-283
-256
-267
-295
-267
-291
-315
-266
-172
121
649
1013
1149
1153
994
784
611
429
260
144
100
49
5
-18
-88
-141
-144
-134
-120
-76
-72
-75
-90
-119
-125
-171
-156
-208
-269
-266
-249
-259
-270
-302
-254
-254
-307
-285
-273
-295
-292
-249
-93
342
803
1071
1117
987
790
610
459
305
192
134
105
77
-20
-77
-91
-141
-141
-85
-68
-54
-55
-76
-103
-140
-167
-171
-180
-218
-237
-242
-230
-271
-269
-274
-271
-298
-307
-310
-295
-97
366
750
974
1011
937
784
619
452
346
247
188
160
131
60
-41
-108
-100
-113
-108
-97
-78
-60
-101
-110
-112
-158
-197
-222
-243
-292
-291
-282
-272
-269
-278
-314
-309
-326
-353
-339
-334
-172
230
667
960
1015
934
801
664
488
372
277
225
196
139
55
-24
-107
-138
-135
-118
-86
-100
-84
-87
-105
-146
-165
-190
-223
-263
-279
-275
-271
-291
-310
-317
-277
-292
-344
-342
-359
-324
-117
249
692
952
1020
968
821
671
526
380
300
216
191
153
53
-55
-75
-109
-123
-107
-95
-108
-71
-70
-118
-131
-194
-241
-289
-281
-302
-289
-324
-329
-296
-307
-325
-341
-378
-375
-319
-74
322
738
961
1006
903
770
620
464
417
377
287
217
155
49
-74
-143
-181
-159
-139
-132
-142
-153
-160
-175
-209
-205
-243
-308
-337
-354
-357
-399
-431
-425
-445
-448
-422
-424
-423
-478
-438
-393
-407
-420
-422
-424
-431
-448
-440
-406
-398
-377
-382
-389
-372
-394
-390
-397
-377
-230
293
969
1407
1507
1441
1220
972
717
506
348
260
188
106
48
-7
-87
-103
-100
-25
-2
-4
-36
-83
-82
-115
-146
-188
-212
-215
-261
-303
-297
-310
-319
-304
-316
-305
-323
-366
-369
-329
-334
-359
-365
-354
-363
-290
-323
-340
-325
-331
-262
7
619
1136
1371
1391
1263
1056
809
597
434
357
267
217
182
90
10
-83
-95
-67
-79
-51
-35
-26
-85
-106
-147
-213
-195
-222
-308
-265
-304
-334
-323
-332
-385
-374
-353
-355
-405
-375
-362
-393
-410
-386
-405
-377
-367
-339
-321
-344
-336
-342
-360
-367
-282
-86
487
1113
1484
1542
1415
1245
993
696
493
376
298
230
163
86
39
-35
-119
-123
-95
-99
-22
-58
-105
-121
-120
-164
-189
-212
-267
-278
-316
-343
-359
-329
-348
-365
-394
-375
-401
-431
-421
-407
-393
-395
-381
-401
-382
-373
-370
-324
-306
-289
-307
-314
-141
276
951
1410
1560
1497
1312
1023
767
506
337
216
121
60
64
-32
-126
-154
-142
-85
-55
-58
-100
-79
-53
-118
-167
-192
-239
-232
-288
-295
-321
-326
-314
-310
-336
-335
-322
-324
-355
-339
-336
-360
-361
-322
-305
-294
-305
-295
-287
-286
-196
273
928
1398
1569
1531
1337
1085
803
586
400
280
148
88
58
-8
-68
-143
-158
-142
-111
-37
-23
-50
-92
-110
-120
-198
-244
-275
-289
-295
-324
-370
-341
-343
-361
-347
-379
-406
-405
-396
-396
-388
-389
-368
-345
-337
-320
-315
-295
-295
-116
397
1091
1522
1637
1526
1291
1081
814
569
423
314
196
106
51
-17
-115
-175
-146
-160
-139
-104
-83
-89
-125
-160
-176
-231
-257
-278
-296
-317
-312
-377
-366
-365
-385
-399
-403
-420
-399
-369
-411
-384
-429
-379
-363
-334
-322
-308
-275
-274
-206
91
745
1329
1525
1541
1424
1154
884
622
401
288
210
148
70
-15
-84
-121
-180
-171
-126
-94
-73
-63
-70
-140
-145
-164
-189
-223
-254
-301
-329
-354
-318
-328
-344
-350
-328
-335
-378
-385
-376
-360
-321
-327
-323
-295
-308
-276
-215
-85
430
1038
1343
1373
1284
1110
841
614
434
286
186
110
53
-8
-58
-109
-137
-154
-73
-31
-26
-15
-52
-78
-107
-156
-203
-222
-230
-228
-255
-298
-294
-298
-274
-278
-311
-307
-306
-288
-275
-320
-310
-305
-314
-292
-252
-108
279
842
1192
1238
1207
1059
873
655
461
342
259
201
106
61
5
-34
-95
-100
-116
-47
-36
-55
-57
-81
-121
-132
-154
-210
-202
-233
-242
-249
-287
-312
-312
-316
-296
-311
-330
-302
-329
-338
-327
-332
-309
-285
-262
-260
-255
-262
-247
-57
426
956
1237
1275
1212
1015
810
622
430
308
228
160
114
70
15
-63
-114
-103
-91
-94
-91
-90
-90
-98
-126
-139
-160
-200
-217
-255
-246
-296
-297
-321
-348
-315
-299
-318
-348
-343
-319
-316
-323
-319
-334
-309
-313
-316
-314
-266
-229
-245
-212
-65
390
948
1251
1293
1242
1067
838
643
419
288
209
149
114
47
-48
-90
-116
-116
-131
-99
-71
-92
-71
-83
-103
-126
-163
-186
-237
-240
-276
-279
-298
-316
-316
-300
-297
-319
-333
-351
-338
-316
-322
-310
-294
-276
-272
-285
-298
-227
-225
-136
202
770
1178
1298
1247
1077
885
657
466
318
270
188
122
76
17
-83
-116
-132
-117
-71
-58
-45
-52
-92
-104
-106
-163
-223
-209
-237
-250
-253
-264
-279
-272
-289
-301
-306
-285
-290
-318
-336
-317
-285
-296
-295
-279
-263
-182
121
647
1097
1222
1236
1088
903
726
557
399
312
245
205
137
78
8
-77
-83
-80
-76
-53
-46
-48
-77
-100
-137
-144
-193
-207
-228
-244
-247
-273
-306
-331
-335
-303
-287
-308
-324
-327
-339
-299
-281
-271
-302
-304
-280
-230
-55
381
849
1103
1166
1117
974
780
602
461
360
284
243
207
129
30
-29
-90
-119
-108
-89
-68
-58
-90
-48
-106
-152
-170
-188
-236
-252
-279
-251
-266
-279
-315
-303
-325
-296
-307
-315
-316
-337
-315
-342
-300
-238
-67
371
767
947
974
907
764
592
437
325
215
181
154
91
-8
-55
-107
-96
-98
-102
-65
-48
-41
-68
-119
-123
-176
-207
-223
-239
-226
-243
-275
-284
-241
-234
-261
-283
-301
-308
-279
-162
188
611
857
959
920
810
710
582
470
378
322
281
212
133
52
-10
-66
-70
-30
7
-3
-51
-55
-85
-112
-140
-177
-199
-201
-236
-257
-275
-282
-279
-271
-270
-282
-290
-299
-317
-300
-166
183
589
850
946
923
830
737
621
522
456
388
354
294
215
86
-13
-58
-76
-79
-75
-44
-54
-92
-112
-149
-176
-206
-217
-251
-291
-275
-302
-320
-337
-349
-361
-381
-367
-361
-378
-379
-387
-361
-408
-383
-349
-361
-380
-381
-374
-369
-370
-351
-361
-362
-363
-328
-345
-378
-346
-272
46
560
991
1164
1184
1071
901
775
635
498
423
369
341
288
189
60
1
-49
-69
-63
-35
-44
-75
-69
-99
-131
-136
-190
-227
-248
-262
-265
-291
-315
-330
-353
-353
-325
-344
-367
-387
-372
-372
-364
-344
-326
-327
-368
-367
-338
-344
-362
-354
-314
-324
-334
-326
-324
-245
119
627
978
1123
1075
917
747
589
451
336
261
225
193
122
8
-32
-97
-134
-73
-34
1
-30
-57
-84
-80
-105
-140
-150
-221
-213
-208
-236
-245
-241
-254
-244
-290
-285
-276
-281
-294
-299
-289
-296
-281
-297
-292
-234
-253
-276
-286
-298
-219
-8
436
811
987
1036
987
785
606
475
364
274
257
239
149
123
30
-38
-88
-77
-62
-20
-11
-16
-42
-93
-117
-160
-185
-188
-228
-236
-230
-252
-266
-295
-313
-320
-311
-303
-324
-318
-295
-297
-309
-301
-284
-301
-279
-262
-256
-264
-265
-267
-296
-246
18
446
854
1070
1045
924
765
610
408
283
254
196
165
148
91
8
-86
-108
-114
-74
-75
-74
-73
-83
-79
-112
-145
-152
-214
-233
-253
-241
-267
-294
-295
-303
-284
-293
-295
-294
-300
-287
-316
-320
-306
-304
-283
-291
-268
-280
-266
-267
-271
-278
-255
-246
-149
165
556
856
981
935
781
588
435
281
191
136
92
66
38
-14
-106
-90
-60
-47
-29
-12
-12
-65
-63
-61
-97
-127
-155
-166
-185
-145
-175
-218
-175
-206
-201
-206
-220
-222
-222
-197
-206
-217
-149
-174
-209
-194
-191
-189
-221
-164
-35
186
515
829
958
892
737
560
411
284
221
160
114
91
67
-1
-24
-60
-60
-34
-34
8
-15
-28
-19
-63
-71
-85
-120
-145
-132
-172
-166
-180
-171
-203
-200
-189
-190
-206
-186
-191
-203
-194
-190
-230
-185
-172
-184
-171
-176
-163
-70
214
591
832
997
961
778
575
443
333
238
177
148
103
39
20
-15
-102
-126
-66
-68
-63
-42
-75
-76
-76
-63
-103
-149
-150
-155
-207
-179
-180
-213
-228
-234
-235
-224
-256
-247
-230
-222
-211
-226
-240
-221
-223
-196
-216
-204
-188
-194
-174
-182
-20
326
739
1014
1091
1055
872
656
476
362
195
114
92
74
44
-36
-68
-102
-111
-84
-30
-38
-12
-1
-35
-70
-83
-104
-146
-155
-196
-188
-213
-204
-201
-213
-204
-213
-199
-199
-217
-237
-255
-237
-188
-188
-212
-187
-193
-198
-159
-114
107
561
942
1078
1108
962
751
547
372
232
154
122
94
52
-9
-60
-89
-102
-90
-51
-12
-17
-1
-22
-81
-101
-110
-112
-194
-173
-179
-210
-220
-236
-227
-243
-239
-241
-221
-244
-241
-248
-240
-202
-222
-234
-224
-227
-206
-218
-166
140
619
992
1178
1143
974
782
574
428
271
177
149
109
81
34
-24
-76
-109
-99
-69
-76
-52
-25
-51
-94
-117
-156
-148
-172
-193
-207
-232
-241
-235
-221
-269
-285
-262
-281
-269
-276
-274
-276
-260
-272
-246
-267
-244
-245
-278
-234
-237
-208
38
537
1001
1240
1251
1060
882
692
493
331
197
177
113
56
17
-27
-74
-141
-124
-103
-128
-72
-75
-85
-90
-149
-147
-157
-193
-183
-241
-262
-277
-244
-219
-262
-274
-276
-264
-313
-293
-281
-265
-250
-264
-253
-275
-229
-245
-262
-239
-110
249
762
1077
1189
1149
968
800
558
364
234
154
83
46
2
-50
-132
-147
-96
-98
-71
-48
-64
-74
-71
-118
-115
-122
-169
-197
-220
-221
-230
-236
-280
-269
-273
-261
-245
-246
-281
-306
-282
-279
-254
-249
-253
-255
-249
-247
-145
188
687
1097
1260
1216
1069
856
646
431
316
198
165
147
64
17
-26
-117
-147
-99
-78
-36
-55
-56
-86
-126
-149
-154
-164
-226
-235
-217
-240
-280
-279
-276
-314
-324
-287
-279
-287
-283
-291
-302
-313
-293
-288
-286
-292
-266
-257
-284
-191
80
610
1088
1280
1270
1169
917
683
548
373
263
189
115
106
74
-34
-92
-108
-116
-98
-56
-88
-91
-86
-122
-145
-148
-181
-189
-223
-256
-278
-304
-297
-269
-283
-317
-326
-312
-330
-351
-340
-335
-348
-320
-304
-337
-288
-249
-274
-298
-253
-100
362
941
1239
1291
1246
1086
844
586
398
290
204
129
111
50
-25
-99
-154
-161
-120
-86
-69
-60
-77
-131
-145
-159
-193
-202
-228
-255
-257
-271
-296
-325
-335
-305
-307
-336
-340
-348
-328
-353
-334
-312
-310
-303
-317
-294
-265
-263
-157
264
808
1168
1282
1209
1078
852
580
424
275
162
144
112
61
-34
-82
-109
-100
-93
-41
-36
-52
-30
-66
-87
-139
-177
-144
-191
-222
-248
-257
-287
-291
-286
-280
-286
-304
-289
-292
-290
-304
-337
-312
-269
-294
-300
-279
-291
-269
-201
142
755
1186
1314
1324
1208
987
732
547
391
279
231
169
135
75
-13
-78
-106
-106
-130
-95
-57
-65
-85
-118
-125
-157
-191
-214
-224
-238
-259
-287
-281
-278
-303
-345
-351
-303
-330
-348
-328
-331
-344
-324
-328
-295
-257
-259
-298
-281
-274
-285
-221
85
655
1158
1352
1335
1263
1048
820
608
417
283
166
118
78
43
-56
-89
-107
-123
-119
-104
-74
-86
-99
-106
-123
-170
-179
-231
-240
-268
-275
-297
-292
-314
-307
-326
-359
-358
-363
-365
-358
-353
-324
-343
-323
-303
-314
-302
-304
-285
-283
-201
96
657
1107
1340
1340
1204
984
771
567
409
306
211
98
53
9
-33
-107
-166
-124
-110
-84
-66
-78
-103
-101
-120
-144
-168
-217
-210
-267
-290
-279
-290
-302
-319
-320
-329
-369
-342
-334
-347
-314
-319
-317
-324
-326
-293
-310
-179
203
772
1111
1250
1233
1049
856
640
440
332
248
180
113
23
-42
-106
-121
-104
-102
-78
-58
-41
-49
-83
-92
-117
-160
-201
-240
-240
-239
-255
-264
-255
-251
-255
-276
-257
-286
-300
-319
-276
-220
98
619
981
1131
1116
991
804
640
500
372
301
233
180
120
26
-45
-86
-113
-98
-77
-72
-52
-61
-67
-122
-155
-168
-198
-216
-246
-245
-258
-296
-277
-278
-282
-292
-282
-296
-294
-279
-296
-333
-272
2
492
894
1072
1095
1014
887
700
543
454
357
318
262
232
132
60
-27
-98
-108
-96
-27
-40
-34
-84
-100
-134
-170
-169
-189
-243
-250
-276
-305
-291
-304
-321
-316
-300
-326
-310
-318
-342
-339
-352
-364
-309
-303
-297
-300
-308
-338
-346
-342
-246
-8
505
904
1156
1222
1145
981
779
609
488
432
372
340
284
201
69
-5
-36
-62
-49
-35
-6
14
-19
-92
-96
-143
-170
-181
-223
-240
-262
-281
-303
-307
-341
-285
-317
-312
-312
-321
-299
-332
-329
-308
-316
-319
-301
-310
-309
-333
-340
-309
-66
391
832
1065
1100
1050
889
700
549
461
382
334
286
232
149
33
14
-47
-43
-49
-7
20
-4
-45
-104
-99
-120
-175
-198
-236
-234
-283
-256
-284
-262
-267
-304
-319
-341
-314
-348
-346
-341
-352
-344
-319
-311
-312
-305
-289
-277
-301
-322
-356
-301
-206
161
611
995
1118
1113
985
800
663
530
457
380
350
313
218
107
18
-34
-43
-31
-14
9
-12
-77
-47
-62
-133
-151
-174
-198
-244
-261
-267
-307
-341
-313
-305
-310
-318
-354
-321
-351
-319
-343
-381
-349
-344
-353
-364
-357
-338
-353
-323
-349
-336
-341
-332
-324
-345
-370
-327
-293
-54
446
861
1075
1126
1030
833
651
525
401
316
297
285
229
130
49
10
-48
-52
-53
-59
-71
-56
-72
-81
-147
-157
-181
-204
-221
-252
-268
-318
-313
-303
-319
-305
-333
-341
-328
-314
-296
-325
-298
-285
-266
-303
-305
-313
-356
-344
-342
-335
-355
-385
-438
-578
-748
-960
-1079
-1211
-1159
-841
-335
1
157
156
108
-3
-120
-218
-308
-419
-479
-602
-822
-1126
-1331
-1363
-1207
-1072
-911
-772
-648
-562
-292
-56
-119
-172
-155
-100
-200
-195
-132
-45
38
164
494
837
1004
939
704
483
327
140
-138
-372
-461
-503
-643
-682
-543
-302
122
414
501
416
315
269
216
108
-103
-375
-498
-500
-311
-74
129
186
399
648
783
852
942
801
479
156
46
64
292
479
603
629
410
311
285
258
216
187
75
-1
-95
-184
-237
-263
-280
-197
160
898
1306
1284
903
379
156
16
87
236
339
342
318
250
233
256
371
439
475
512
464
443
417
388
367
237
104
17
-66
-93
-57
-54
-82
-24
40
50
83
124
172
183
236
481
890
1205
1364
1348
1209
1001
812
639
526
478
404
327
246
135
37
-2
-17
22
41
66
102
138
169
194
134
87
57
36
-20
-58
-81
-86
-113
-166
-223
-294
-340
-390
-472
-389
-140
242
555
643
624
551
449
355
261
178
156
140
72
25
-91
-161
-146
-115
-25
51
35
8
-39
-36
-108
-183
-277
-403
-549
-639
-718
-712
-666
-643
-623
-564
-523
-475
-472
-374
-97
333
706
921
947
814
652
502
384
338
297
260
190
107
-2
-83
-105
-104
-92
-105
-98
-90
-80
-101
-135
-186
-208
-242
-261
-287
-339
-317
-337
-301
-322
-344
-318
-324
-357
-345
-338
-232
70
505
793
915
851
724
531
369
288
252
242
207
138
21
-84
-124
-111
-133
-109
-88
-88
-113
-111
-144
-181
-227
-257
-295
-351
-399
-391
-356
-402
-372
-365
-362
-399
-383
-373
-372
-360
-292
-19
388
694
790
746
618
459
323
262
211
211
132
103
29
-79
-173
-157
-181
-168
-124
-172
-180
-138
-149
-192
-233
-265
-280
-300
-352
-350
-355
-330
-328
-360
-369
-343
-359
-368
-353
-365
-389
-375
-358
-390
-346
-390
-350
-345
-331
-339
-337
-291
-311
-334
-337
-309
-321
-329
-293
-168
154
556
832
915
806
599
452
293
158
134
141
139
102
35
-2
-65
-72
-82
-40
-2
7
-22
-29
-38
-55
-74
-70
-77
-94
-142
-191
-168
-149
-169
-179
-197
-192
-183
-203
-176
-154
-182
-167
-197
-155
-170
-188
-172
-172
-194
-138
-175
-74
197
593
845
907
829
654
479
327
233
206
176
177
107
53
0
-17
-29
-36
-20
2
-29
4
-1
-50
-32
-50
-62
-78
-113
-127
-144
-136
-175
-190
-205
-196
-196
-206
-179
-169
-200
-180
-198
-201
-198
-164
-162
-207
-210
-209
-199
-223
-220
-87
266
662
920
1001
928
725
539
387
292
220
146
164
137
84
38
24
-62
-48
-39
-18
0
12
-42
-49
-47
-72
-101
-86
-93
-117
-156
-146
-216
-185
-168
-183
-168
-186
-212
-234
-207
-199
-214
-190
-207
-175
-213
-196
-168
-179
-169
-190
-180
-189
-53
236
644
1042
1207
1189
1034
814
583
405
287
240
215
224
168
73
30
-22
-1
-13
45
39
24
28
39
17
-40
-92
-103
-137
-136
-169
-137
-156
-171
-204
-177
-186
-219
-166
-194
-235
-257
-219
-233
-222
-201
-200
-212
-159
-159
-162
44
467
888
1125
1209
1088
911
715
500
345
278
236
174
114
60
-10
-43
-9
-13
14
17
23
13
-30
-59
-81
-102
-159
-184
-179
-167
-206
-231
-212
-232
-250
-248
-255
-248
-263
-282
-245
-224
-262
-260
-278
-260
-81
361
825
1144
1277
1219
996
759
547
427
375
300
247
195
183
52
-64
-72
-7
-30
-22
20
-22
-71
-101
-100
-158
-168
-196
-191
-246
-281
-291
-261
-279
-312
-302
-285
-295
-316
-298
-304
-262
-239
-246
-215
-281
-299
-176
180
723
1104
1316
1291
1124
930
703
489
353
289
215
202
123
49
-37
-112
-116
-75
-76
-71
-26
-58
-143
-146
-189
-195
-249
-271
-317
-303
-331
-322
-336
-339
-363
-344
-360
-331
-345
-350
-342
-372
-395
-363
-372
-321
-254
51
621
1078
1271
1311
1143
913
650
444
300
234
211
168
97
-2
-83
-108
-101
-98
-44
-45
-32
-39
-49
-123
-156
-214
-223
-247
-290
-276
-274
-301
-346
-297
-305
-349
-382
-379
-379
-338
-374
-362
-275
63
580
1043
1250
1234
1137
885
685
456
343
277
224
149
88
-22
-80
-139
-141
-111
-95
-39
-55
-33
-96
-157
-204
-196
-243
-282
-242
-293
-331
-321
-308
-322
-346
-342
-365
-360
-349
-378
-397
-332
-75
449
981
1308
1374
1212
1002
772
553
396
305
258
234
172
55
-65
-114
-135
-111
-66
6
-40
-92
-69
-118
-151
-211
-240
-254
-300
-309
-296
-314
-376
-379
-344
-326
-352
-355
-327
-342
-409
-357
-380
-412
-366
-163
329
877
1230
1373
1270
1081
852
629
452
341
320
275
186
108
3
-76
-81
-80
-92
-45
-60
-80
-74
-118
-177
-191
-255
-277
-347
-326
-345
-381
-388
-408
-380
-403
-396
-432
-428
-411
-431
-445
-441
-444
-406
-438
-418
-422
-289
142
739
1164
1299
1234
1068
808
563
393
287
262
197
132
20
-60
-106
-138
-162
-141
-70
-69
-104
-168
-158
-215
-227
-281
-326
-305
-336
-346
-368
-421
-374
-411
-415
-421
-436
-429
-438
-425
-423
-415
-416
-420
-451
-310
15
588
1043
1236
1230
1036
786
570
408
266
208
170
127
28
-41
-133
-176
-188
-183
-122
-64
-81
-132
-192
-200
-209
-277
-325
-362
-372
-371
-334
-331
-410
-391
-395
-407
-402
-419
-425
-433
-393
-378
-421
-439
-435
-343
12
525
976
1177
1186
1044
842
628
450
299
216
194
157
69
-33
-121
-194
-180
-192
-146
-106
-78
-86
-134
-160
-240
-277
-307
-318
-307
-337
-341
-359
-366
-364
-382
-359
-383
-427
-414
-380
-410
-403
-365
-412
-391
-388
-335
-370
-334
-352
-259
141
689
1079
1228
1195
1013
773
560
371
247
185
181
154
111
18
-62
-123
-129
-93
-51
-105
-103
-96
-104
-149
-170
-225
-199
-227
-224
-292
-280
-314
-333
-300
-317
-353
-348
-330
-334
-341
-334
-375
-343
-316
-339
-316
-342
-295
-288
-294
-6
517
926
1170
1232
1099
849
597
397
276
200
154
152
73
16
-57
-106
-137
-92
-19
-6
-19
-72
-48
-71
-151
-144
-163
-198
-217
-236
-213
-273
-276
-273
-273
-256
-253
-276
-247
-301
-279
-265
-309
-280
-260
-264
-219
48
567
1008
1238
1219
1092
879
635
462
327
212
167
140
120
53
-58
-100
-95
-78
-62
0
39
-31
-69
-117
-120
-187
-207
-197
-215
-253
-244
-241
-270
-272
-300
-270
-265
-296
-299
-285
-313
-317
-263
-268
-288
-284
-301
-222
5
483
1039
1306
1339
1173
937
733
546
387
296
264
191
153
93
21
-78
-90
-57
-20
-50
-47
-50
-61
-80
-162
-153
-212
-246
-200
-235
-292
-288
-271
-278
-259
-305
-318
-309
-317
-319
-335
-349
-325
-322
-328
-288
-265
-291
-294
-299
-284
-171
141
688
1154
1388
1368
1206
962
728
548
385
251
211
167
106
57
-24
-67
-76
-65
-33
-27
-16
-15
-37
-129
-171
-171
-172
-212
-227
-202
-217
-288
-299
-236
-267
-327
-304
-255
-261
-317
-292
-292
-328
-299
-290
-279
-289
-289
-187
190
695
1115
1339
1386
1233
981
732
502
322
235
198
138
67
0
-80
-93
-93
-56
-47
0
-21
-26
-44
-102
-130
-175
-189
-254
-270
-286
-286
-277
-291
-311
-295
-323
-317
-322
-352
-328
-351
-320
-319
-305
-301
-303
-281
-115
329
864
1292
1442
1385
1224
948
731
539
374
268
273
242
155
16
-48
-103
-119
-83
-63
-99
-50
-20
-100
-156
-190
-212
-217
-254
-275
-302
-301
-343
-331
-347
-382
-348
-383
-363
-352
-361
-365
-358
-375
-366
-367
-356
-309
-293
-329
-140
334
910
1303
1437
1393
1208
956
709
548
385
266
234
163
124
22
-107
-104
-77
-72
-62
-33
-15
-49
-108
-158
-165
-164
-209
-238
-256
-295
-322
-315
-343
-313
-319
-351
-399
-357
-333
-345
-362
-378
-364
-338
-365
-345
-306
-326
-298
-129
335
920
1300
1409
1327
1140
912
665
436
333
226
168
137
35
-56
-163
-117
-78
-85
-37
-57
-48
-74
-122
-137
-157
-189
-220
-252
-283
-298
-326
-373
-326
-347
-326
-354
-341
-337
-347
-369
-362
-340
-365
-360
-338
-381
-285
-26
494
1054
1345
1405
1290
1056
838
600
387
293
222
182
166
93
-62
-132
-152
-114
-14
-50
-62
-47
-123
-124
-165
-221
-218
-216
-295
-274
-298
-332
-294
-334
-349
-374
-364
-366
-411
-408
-384
-403
-420
-394
-414
-404
-415
-380
-368
-373
-100
429
965
1301
1456
1361
1177
928
677
469
348
251
191
145
119
66
-65
-107
-85
-60
-24
-28
-46
-52
-95
-113
-134
-154
-208
-229
-250
-239
-251
-293
-342
-337
-339
-352
-343
-340
-338
-350
-397
-401
-376
-409
-362
-368
-326
-307
-291
47
625
1016
1249
1298
1189
1013
828
562
414
313
227
185
139
70
-29
-82
-93
-114
-49
-39
-55
-42
-46
-59
-136
-137
-161
-217
-215
-246
-270
-242
-310
-350
-322
-347
-337
-355
-341
-373
-376
-360
-385
-369
-341
-361
-336
-329
-355
-275
-57
443
952
1272
1329
1300
1098
853
626
433
296
200
204
146
40
-11
-59
-83
-46
-3
-7
-17
1
-30
-71
-109
-146
-173
-217
-264
-257
-267
-302
-313
-295
-333
-325
-342
-339
-360
-389
-380
-347
-359
-336
-335
-371
-357
-283
52
573
1084
1342
1392
1282
1074
819
621
489
332
310
317
229
122
66
-28
-52
-26
-29
-25
-18
-9
-29
-78
-121
-176
-188
-226
-274
-275
-325
-341
-365
-369
-358
-379
-450
-431
-397
-382
-410
-415
-423
-385
-436
-404
-378
-405
-367
-402
-378
-249
208
811
1206
1370
1366
1250
1016
750
560
445
362
346
319
217
98
17
-53
-55
-34
-3
-7
-42
-69
-81
-85
-121
-184
-211
-219
-259
-300
-315
-364
-355
-374
-378
-383
-413
-401
-425
-449
-476
-448
-425
-418
-436
-439
-408
-422
-427
-421
-395
-296
63
650
1130
1360
1376
1262
1069
780
568
443
320
283
253
203
86
-20
-65
-100
-52
-25
2
-26
-5
-50
-131
-161
-199
-202
-250
-276
-269
-301
-302
-351
-395
-364
-409
-377
-400
-429
-385
-416
-435
-431
-425
-425
-419
-408
-413
-409
-381
-269
91
697
1152
1325
1331
1232
1016
764
553
438
339
281
250
135
34
-32
-38
-62
-52
-17
-25
5
-16
-47
-125
-151
-188
-223
-251
-232
-270
-286
-297
-335
-357
-377
-386
-368
-383
-380
-436
-433
-426
-427
-393
-391
-416
-385
-390
-428
-405
-186
275
809
1234
1407
1372
1236
1018
777
585
513
455
374
259
224
143
8
-26
-10
-16
-10
-4
-20
-4
-37
-89
-124
-160
-203
-231
-243
-275
-302
-354
-343
-342
-357
-393
-422
-411
-435
-402
-447
-440
-416
-429
-442
-424
-401
-425
-418
-383
-371
-395
-372
-94
431
971
1291
1403
1384
1241
981
738
610
473
406
389
336
208
135
62
-33
-70
-26
12
26
2
-5
-12
-72
-114
-156
-201
-223
-238
-288
-330
-330
-353
-374
-377
-361
-397
-430
-424
-407
-404
-420
-453
-434
-390
-407
-376
-398
-403
-407
-397
-372
-304
73
656
1129
1313
1321
1212
1001
782
614
490
363
344
298
220
130
33
-39
-56
-27
0
11
27
-7
-55
-60
-99
-157
-188
-230
-258
-269
-286
-333
-316
-334
-349
-412
-391
-375
-404
-430
-379
-392
-421
-407
-418
-415
-392
-417
-399
-390
-412
-382
-191
342
870
1225
1343
1275
1130
914
724
530
425
341
307
241
216
90
3
-53
-31
-7
4
49
12
-51
-63
-70
-113
-161
-211
-254
-275
-284
-284
-347
-338
-321
-368
-406
-390
-400
-373
-398
-418
-432
-435
-385
-397
-395
-370
-368
-371
-411
-424
-381
-285
100
656
1099
1361
1360
1243
1055
874
682
571
488
396
358
287
227
110
8
-33
-14
14
15
-27
-27
-45
-78
-80
-128
-206
-205
-242
-317
-309
-328
-344
-355
-384
-375
-335
-388
-407
-417
-429
-457
-423
-416
-465
-435
-432
-437
-412
-398
-414
-419
-411
-293
45
606
1073
1305
1378
1290
1100
893
724
548
411
398
365
283
181
79
3
-15
-36
10
-34
-10
-25
-3
-43
-103
-146
-189
-211
-215
-221
-311
-341
-334
-373
-378
-407
-407
-407
-403
-436
-407
-381
-426
-449
-426
-400
-381
-392
-377
-385
-401
-408
-421
-369
-140
406
892
1275
1362
1322
1177
947
718
539
394
353
338
263
182
56
-41
-44
-16
-13
14
13
27
17
-27
-84
-142
-185
-216
-245
-271
-300
-275
-327
-363
-360
-365
-344
-343
-373
-383
-402
-389
-366
-375
-369
-392
-374
-364
-373
-409
-362
-184
296
860
1225
1409
1405
1230
1024
798
635
500
400
351
335
260
145
10
-26
37
25
-7
39
40
13
11
-53
-103
-146
-199
-230
-232
-286
-317
-324
-351
-321
-342
-349
-403
-412
-390
-410
-441
-408
-374
-412
-383
-393
-357
-393
-350
-395
-381
-320
-31
531
1077
1317
1393
1353
1199
978
784
635
526
436
433
376
259
136
66
2
-9
0
36
13
12
-5
-52
-75
-80
-161
-220
-238
-266
-280
-326
-338
-418
-396
-401
-421
-426
-385
-386
-428
-433
-417
-424
-417
-412
-416
-440
-406
-379
-407
-414
-402
-404
-430
-380
-256
119
694
1162
1429
1422
1283
1084
835
641
527
458
420
340
303
229
75
-46
-42
-4
-9
21
-15
-34
-73
-55
-79
-147
-150
-171
-233
-272
-308
-328
-374
-399
-368
-347
-369
-381
-394
-424
-406
-421
-438
-399
-412
-384
-405
-399
-363
-374
-363
-360
-348
-356
-345
-229
179
754
1169
1342
1321
1182
948
731
547
404
360
301
256
155
30
-22
-57
-111
-53
-2
-38
-17
-6
-79
-128
-146
-154
-187
-255
-273
-294
-308
-311
-323
-346
-365
-360
-376
-349
-365
-389
-362
-356
-335
-329
-350
-363
-346
-296
-344
-343
-368
-303
-61
444
951
1259
1359
1278
1081
881
711
556
423
361
304
247
177
65
-16
-45
-75
-65
-50
-80
-81
-95
-98
-131
-149
-193
-269
-303
-361
-386
-355
-365
-384
-411
-369
-387
-355
-376
-409
-383
-386
-381
-415
-418
-407
-406
-386
-362
-364
-380
-342
-333
-366
-378
-353
-275
42
564
1017
1298
1392
1294
1070
804
623
487
409
356
327
272
160
63
-48
-85
-109
-63
3
-27
-64
-85
-97
-136
-153
-181
-193
-274
-285
-310
-311
-325
-332
-344
-369
-341
-333
-362
-361
-351
-371
-371
-331
-369
-346
-350
-347
-337
-355
-327
-325
-308
-316
-305
-326
-328
-199
160
704
1131
1322
1315
1180
948
701
538
407
264
267
272
160
70
-11
-65
-57
-59
-35
0
11
-34
-42
-56
-116
-106
-130
-172
-208
-232
-255
-257
-285
-287
-293
-310
-299
-318
-305
-303
-289
-277
-334
-328
-283
-280
-331
-297
-292
-296
-296
-282
-267
-21
451
893
1214
1318
1231
1006
771
608
465
321
264
241
190
97
26
-35
-59
12
17
5
25
43
3
-30
-54
-115
-101
-131
-185
-197
-205
-232
-235
-240
-260
-248
-266
-294
-270
-305
-307
-300
-329
-287
-305
-298
-285
-289
-319
-311
-242
13
451
917
1211
1354
1230
1074
859
658
498
392
334
308
264
226
108
17
-5
-7
-13
-14
-14
-13
-23
-45
-82
-99
-129
-175
-175
-227
-225
-259
-279
-304
-296
-285
-341
-347
-344
-358
-363
-348
-357
-321
-342
-322
-321
-325
-330
-331
-319
-278
-302
-305
-290
-186
231
751
1127
1305
1282
1119
907
694
518
382
295
262
265
198
128
26
-22
-44
-46
-20
-2
20
-17
-62
-63
-67
-104
-172
-187
-243
-228
-248
-258
-262
-262
-263
-336
-296
-290
-286
-333
-318
-310
-313
-314
-309
-293
-284
-322
-314
-302
-298
-273
-290
-265
-53
364
859
1178
1267
1165
965
768
546
394
295
252
221
186
129
13
-46
-29
-21
-19
-26
-17
-37
-18
-18
-74
-112
-110
-172
-184
-240
-246
-237
-274
-286
-278
-306
-299
-281
-277
-299
-292
-294
-304
-295
-287
-267
-277
-298
-288
-307
-252
-269
-128
300
777
1092
1217
1163
996
751
548
380
296
242
222
193
115
10
-29
-43
-57
-8
29
0
-24
-23
-34
-68
-99
-132
-158
-177
-242
-251
-237
-236
-249
-257
-262
-274
-293
-277
-254
-259
-261
-265
-253
-268
-292
-278
-294
-275
-263
-269
-210
51
505
955
1195
1221
1136
936
714
563
423
353
315
281
287
181
91
1
-10
-28
-11
-2
15
0
-19
-18
-99
-122
-141
-156
-195
-207
-225
-261
-272
-300
-272
-276
-288
-293
-300
-308
-335
-314
-327
-335
-326
-289
-283
-303
-311
-296
-306
-332
-306
-296
-286
-294
-305
-287
-309
-283
-132
284
819
1180
1273
1217
1075
870
646
481
330
307
316
284
227
138
65
3
-16
22
10
-2
-4
-7
3
-16
-48
-105
-163
-171
-206
-222
-213
-228
-246
-308
-286
-275
-281
-275
-295
-282
-310
-336
-328
-326
-334
-290
-291
-309
-336
-320
-282
-298
-317
-323
-326
-322
-331
-298
-219
69
568
1015
1272
1282
1168
961
697
550
392
282
265
227
172
114
13
-8
-33
-37
-29
11
15
4
-13
-34
-75
-90
-116
-151
-199
-226
-242
-268
-293
-317
-301
-279
-305
-310
-308
-296
-313
-302
-292
-292
-274
-304
-321
-318
-319
-324
-317
-297
-300
-318
-304
-211
109
615
1070
1290
1249
1137
916
683
482
330
256
217
195
146
81
11
-24
-60
-23
18
17
15
46
7
-67
-106
-104
-132
-151
-153
-211
-230
-239
-234
-262
-269
-292
-301
-298
-300
-304
-295
-300
-320
-305
-296
-321
-313
-299
-294
-295
-292
-300
-299
-250
10
513
1006
1289
1353
1280
1049
818
608
482
359
311
267
260
205
80
18
-17
-10
43
41
45
46
8
-37
-59
-97
-143
-191
-205
-199
-236
-250
-258
-271
-279
-305
-340
-351
-354
-323
-313
-341
-358
-362
-354
-352
-336
-333
-367
-343
-342
-342
-316
-322
-339
-348
-264
60
628
1129
1411
1463
1320
1101
897
712
528
419
368
335
272
195
125
25
-12
21
4
12
57
42
-29
-32
-58
-99
-131
-134
-178
-184
-230
-285
-292
-300
-359
-366
-328
-353
-357
-360
-366
-398
-428
-390
-349
-357
-333
-354
-362
-360
-345
-339
-362
-367
-352
-306
-120
349
941
1291
1420
1381
1212
955
720
553
438
330
301
277
226
133
13
-50
-13
6
4
6
25
7
0
-21
-90
-128
-167
-157
-203
-246
-275
-291
-280
-337
-337
-341
-333
-325
-359
-327
-356
-377
-359
-343
-384
-395
-353
-312
-323
-333
-306
-342
-342
-225
151
720
1162
1379
1368
1220
956
750
581
443
346
299
299
217
130
35
9
28
48
70
48
67
81
64
-36
-58
-94
-143
-130
-158
-221
-241
-282
-265
-287
-300
-300
-313
-333
-305
-313
-340
-326
-296
-318
-318
-324
-357
-339
-255
29
579
1026
1265
1364
1279
1065
886
673
548
456
415
421
368
285
150
46
-5
7
40
65
24
2
-32
-83
-87
-102
-166
-208
-236
-299
-328
-349
-329
-365
-374
-397
-404
-394
-400
-413
-410
-412
-388
-419
-440
-418
-411
-400
-410
-422
-433
-419
-405
-366
-377
-399
-381
-381
-287
81
648
1127
1371
1392
1308
1129
933
743
622
522
506
498
432
290
174
91
73
63
50
62
59
29
24
-38
-75
-116
-137
-201
-202
-256
-307
-285
-304
-333
-357
-366
-352
-375
-382
-392
-375
-406
-431
-425
-416
-423
-406
-397
-392
-424
-408
-376
-381
-395
-388
-404
-396
-243
140
703
1103
1252
1242
1132
952
733
570
482
437
437
379
305
211
56
-30
-15
8
34
38
7
-5
-46
-82
-96
-132
-181
-210
-252
-260
-299
-358
-348
-379
-374
-365
-369
-373
-378
-395
-392
-393
-411
-411
-394
-409
-385
-398
-374
-389
-359
-367
-398
-394
-392
-404
-389
-282
28
536
975
1206
1218
1104
908
683
524
398
358
327
301
229
116
17
-46
-56
-21
5
-2
-16
-28
-64
-75
-110
-160
-189
-216
-252
-250
-276
-286
-301
-330
-340
-334
-328
-329
-323
-371
-375
-358
-342
-342
-346
-362
-342
-315
-310
-303
-313
-323
-343
-364
-360
-360
-338
-192
209
709
1068
1215
1179
1031
815
623
494
417
383
364
305
265
148
41
-47
-55
-53
-13
-27
-3
-40
-55
-74
-83
-112
-148
-206
-215
-239
-300
-283
-278
-320
-308
-326
-346
-321
-319
-339
-329
-308
-310
-324
-326
-320
-351
-326
-342
-344
-344
-312
-304
-327
-310
-305
-306
-323
-313
-282
-299
-183
229
746
1102
1217
1174
1069
856
654
504
394
312
326
286
247
146
56
-2
-17
-26
4
1
-2
-15
-60
-55
-89
-131
-154
-176
-214
-232
-257
-263
-283
-290
-321
-335
-284
-289
-301
-320
-322
-314
-332
-320
-309
-278
-290
-292
-282
-285
-295
-288
-265
-286
-334
-315
-287
-287
-298
-260
-152
252
758
1075
1171
1153
1001
792
553
394
319
259
242
199
149
93
-19
-38
-55
-29
-6
4
7
-48
-53
-68
-83
-104
-150
-175
-173
-216
-212
-235
-274
-318
-293
-260
-261
-275
-274
-301
-284
-280
-266
-258
-295
-316
-265
-289
-278
-267
-258
-228
-261
-216
-201
-239
-214
-60
388
812
1067
1150
1088
900
690
502
365
242
236
209
203
133
35
14
-27
-15
10
33
16
29
43
-13
-66
-46
-108
-104
-120
-180
-159
-192
-231
-211
-201
-227
-198
-215
-253
-241
-257
-243
-229
-253
-241
-205
-196
-214
-217
-198
-210
-209
-201
-104
189
634
1009
1197
1204
1075
859
659
477
388
329
285
265
261
176
91
29
17
22
13
44
60
34
33
2
-18
-72
-61
-103
-128
-155
-186
-198
-223
-214
-227
-228
-230
-229
-235
-258
-250
-262
-260
-258
-248
-253
-246
-243
-245
-215
-222
-235
-216
-144
218
682
1075
1241
1218
1083
922
705
564
478
390
404
369
337
241
122
69
57
65
42
50
67
86
28
14
14
-61
-84
-99
-136
-173
-175
-208
-217
-220
-234
-218
-260
-250
-236
-253
-251
-274
-296
-281
-283
-289
-280
-269
-263
-259
-260
-289
-294
-281
-282
-168
211
674
1099
1259
1281
1146
962
768
570
445
416
394
373
332
219
136
90
82
56
83
119
122
82
31
26
4
-49
-113
-152
-165
-178
-189
-209
-249
-267
-263
-257
-282
-271
-290
-342
-335
-336
-353
-349
-320
-288
-320
-316
-319
-307
-325
-341
-281
9
536
973
1213
1258
1152
971
786
633
540
443
400
387
311
219
105
32
25
56
73
56
56
52
13
-48
-66
-130
-174
-178
-227
-264
-276
-282
-319
-356
-344
-364
-344
-354
-362
-324
-362
-349
-380
-398
-397
-413
-300
-33
414
877
1173
1236
1176
943
804
665
536
483
470
447
386
299
118
25
-10
8
54
47
22
-4
-37
-105
-92
-145
-220
-256
-304
-324
-340
-375
-439
-412
-424
-450
-429
-435
-447
-457
-460
-469
-471
-469
-476
-467
-481
-476
-487
-503
-479
-495
-468
-461
-473
-480
-483
-485
-453
-441
-434
-404
-416
-435
-315
58
595
1098
1263
1270
1128
905
703
563
478
419
395
375
345
280
132
-2
-25
6
-2
41
33
-1
-36
-30
-64
-126
-177
-211
-236
-254
-276
-316
-355
-368
-372
-385
-387
-357
-389
-394
-370
-375
-365
-398
-409
-419
-356
-364
-396
-395
-399
-414
-396
-374
-394
-373
-367
-378
-375
-382
-391
-361
-116
370
822
1046
1089
1001
767
563
380
263
206
177
157
128
68
-33
-74
-75
-49
-52
-24
-31
-51
-45
-33
-101
-145
-170
-198
-208
-207
-235
-258
-266
-309
-308
-278
-276
-300
-290
-271
-293
-337
-319
-314
-291
-289
-301
-275
-281
-282
-291
-261
-262
-288
-296
-308
-230
5
488
800
972
976
865
659
438
341
238
226
188
155
162
110
10
-41
-54
-60
-12
15
7
25
-19
-65
-68
-69
-92
-147
-184
-173
-185
-200
-198
-215
-228
-253
-261
-246
-222
-220
-237
-265
-239
-245
-237
-217
-245
-253
-263
-250
-250
-214
-217
-174
-234
-248
-234
-246
-243
-224
-113
189
688
982
1073
1005
815
614
426
288
212
223
223
228
175
94
24
-9
-44
-31
-7
-7
31
8
-28
-46
-56
-50
-96
-71
-137
-152
-122
-186
-189
-170
-167
-179
-168
-165
-199
-216
-194
-185
-181
-183
-205
-194
-175
-172
-194
-186
-191
-183
-191
-182
-213
-202
-183
-175
-114
-4
405
839
1054
1107
1012
785
560
390
231
146
149
150
111
101
49
13
-9
-2
-40
-10
67
55
41
-9
-9
-54
-83
-100
-118
-106
-123
-168
-133
-136
-156
-169
-166
-183
-155
-142
-169
-158
-191
-177
-158
-153
-167
-159
-165
-177
-182
-167
-140
-121
27
370
795
1072
1139
1051
830
610
410
280
173
118
117
115
57
-20
-50
-79
1
2
6
33
35
1
-5
-44
-103
-92
-132
-163
-131
-133
-156
-157
-178
-191
-187
-199
-230
-205
-204
-212
-202
-193
-164
-199
-198
-196
-197
-209
-209
-174
87
547
954
1209
1262
1105
923
711
497
345
254
251
207
170
116
39
-6
-34
-46
-30
3
6
21
0
-37
-95
-96
-90
-147
-167
-151
-200
-229
-185
-219
-196
-219
-239
-223
-231
-240
-272
-218
-241
-245
-259
-221
-230
-263
-241
-234
-187
-194
-223
-198
-162
57
532
974
1226
1262
1160
946
716
511
353
301
273
256
205
180
111
-13
-51
-31
1
5
31
39
17
-66
-71
-87
-110
-132
-139
-213
-223
-194
-230
-221
-223
-246
-264
-253
-254
-244
-227
-268
-234
-242
-286
-248
-257
-267
-260
-238
-241
-224
-228
-235
-229
-202
-174
139
700
1099
1291
1254
1069
843
617
389
307
251
229
229
198
150
45
-12
18
-2
21
70
92
45
-24
-12
-37
-88
-112
-160
-164
-194
-188
-204
-204
-235
-233
-253
-231
-262
-280
-256
-250
-284
-297
-267
-266
-264
-261
-222
-201
-207
-235
-256
-214
-125
210
666
1057
1233
1159
938
738
522
321
223
190
173
153
116
-3
-76
-76
-41
-27
-31
4
-10
-51
-52
-78
-108
-155
-152
-174
-239
-265
-255
-260
-236
-246
-254
-248
-266
-267
-265
-277
-254
-238
-274
-257
-289
-249
-252
-234
-207
-229
-265
-280
-80
391
860
1099
1155
1104
897
623
452
349
233
203
192
171
121
27
-26
-111
-86
-77
-66
-54
-61
-41
-63
-106
-123
-133
-163
-203
-216
-209
-242
-264
-269
-244
-256
-285
-273
-294
-295
-309
-266
-319
-346
-288
-283
-245
-247
-268
-247
-278
-291
-269
-236
-280
-261
-196
96
608
958
1132
1143
951
735
519
388
307
228
198
173
165
76
23
-8
-65
-76
-59
-26
-10
-19
-11
-53
-93
-93
-128
-189
-206
-225
-236
-241
-250
-246
-283
-308
-294
-293
-293
-273
-273
-295
-247
-262
-266
-278
-285
-296
-307
-270
-257
-257
-273
-249
-274
-214
42
493
909
1101
1111
956
746
516
349
225
185
169
161
108
66
-18
-80
-85
-79
-34
4
1
-57
-41
-75
-64
-93
-125
-179
-174
-188
-228
-224
-256
-225
-266
-239
-278
-281
-246
-253
-264
-247
-270
-288
-237
-255
-270
-271
-256
-242
-263
-274
-227
-28
403
851
1136
1162
1043
866
599
385
262
169
167
171
113
55
-32
-79
-58
-60
-13
17
8
20
-42
-69
-82
-117
-129
-182
-177
-175
-189
-204
-235
-228
-227
-257
-267
-240
-241
-271
-233
-233
-268
-300
-281
-272
-265
-268
-280
-278
-232
-105
264
767
1115
1256
1233
999
777
547
377
272
203
233
237
156
70
-45
-64
-50
-34
28
34
4
-9
-23
-89
-101
-115
-134
-146
-208
-202
-214
-276
-276
-273
-244
-249
-247
-289
-341
-263
-260
-279
-260
-310
-326
-275
-300
-328
-284
-294
-286
-267
-289
-295
-244
-224
17
537
1026
1277
1299
1185
952
697
468
311
260
226
208
202
160
38
-26
-90
-66
-13
-13
-21
-30
-29
-46
-69
-82
-125
-150
-210
-219
-201
-262
-262
-272
-282
-292
-286
-326
-289
-260
-305
-303
-288
-296
-344
-316
-290
-308
-308
-302
-304
-264
-281
-281
-246
-290
-295
-161
190
743
1135
1274
1250
1051
769
515
332
202
158
136
147
128
37
-43
-54
-56
-8
-23
4
-10
-25
-65
-101
-151
-149
-165
-159
-181
-227
-204
-238
-279
-268
-231
-238
-259
-236
-270
-272
-247
-252
-262
-273
-242
-265
-262
-280
-245
-259
-269
-276
-227
-140
181
707
1119
1288
1225
987
757
596
338
186
146
118
134
126
46
-55
-79
-65
-32
6
28
19
-20
0
-68
-83
-67
-133
-171
-175
-203
-232
-236
-223
-232
-243
-205
-269
-262
-260
-282
-242
-246
-293
-287
-263
-246
-270
-277
-257
-240
-235
-253
-253
-151
221
714
1143
1305
1309
1135
869
632
454
309
245
193
185
145
58
18
-27
-68
-80
-44
-28
7
3
-26
-79
-55
-79
-123
-155
-194
-174
-201
-221
-243
-284
-268
-260
-254
-242
-239
-253
-282
-278
-295
-281
-270
-303
-272
-270
-287
-279
-277
-262
-264
-290
-278
-280
-181
187
747
1193
1398
1370
1213
945
687
489
332
261
248
218
214
110
37
-7
-37
-65
-65
-31
24
29
24
-28
-91
-124
-144
-153
-147
-173
-200
-236
-253
-255
-270
-278
-266
-275
-306
-296
-306
-336
-299
-336
-305
-282
-300
-299
-309
-316
-273
-271
-294
-303
-292
-209
108
674
1169
1411
1406
1229
1000
741
495
337
251
199
181
129
65
1
-59
-52
-55
-11
31
5
27
7
-24
-89
-102
-161
-196
-247
-239
-223
-236
-278
-286
-262
-233
-254
-292
-281
-297
-326
-314
-324
-315
-318
-278
-292
-279
-275
-258
-293
-298
-296
-285
-109
392
986
1322
1422
1342
1082
818
567
370
290
211
180
168
81
16
-2
-45
-45
-7
16
31
1
4
-29
-87
-99
-124
-132
-177
-222
-228
-246
-296
-266
-273
-286
-301
-295
-314
-303
-312
-328
-320
-333
-316
-292
-298
-317
-293
-281
-297
-291
-281
-303
-295
-184
159
757
1254
1465
1447
1269
1021
801
554
414
344
325
314
264
168
61
-8
2
19
-7
53
42
0
-32
-61
-49
-79
-94
-139
-168
-199
-240
-221
-263
-289
-284
-315
-289
-313
-325
-344
-318
-330
-334
-368
-357
-331
-349
-344
-331
-348
-326
-314
-314
-330
-341
-355
-323
-216
260
835
1263
1441
1397
1218
978
727
486
399
317
299
283
205
120
53
-37
-56
5
0
29
19
-18
-30
-69
-110
-126
-133
-145
-181
-234
-242
-254
-271
-278
-337
-332
-321
-324
-371
-371
-348
-323
-348
-363
-308
-337
-353
-345
-339
-301
-315
-349
-365
-324
-337
-341
-294
-51
528
1056
1384
1429
1293
1052
813
599
433
291
235
184
180
120
32
-18
-55
-1
36
12
28
78
38
-43
-71
-101
-137
-205
-208
-235
-245
-251
-283
-272
-283
-264
-298
-302
-320
-315
-337
-364
-363
-342
-377
-362
-347
-348
-321
-328
-335
-323
-331
-332
-309
-301
-332
-139
360
937
1322
1436
1381
1177
936
709
488
349
311
298
245
204
140
34
-26
-18
9
-1
39
38
-4
-43
-43
-80
-134
-178
-207
-234
-252
-271
-258
-269
-311
-303
-292
-320
-369
-387
-335
-373
-384
-359
-357
-356
-349
-368
-373
-344
-359
-381
-377
-357
-365
-355
-371
-345
-298
-110
398
977
1398
1507
1415
1158
877
658
486
350
281
257
234
179
129
33
-68
-71
-35
-16
-15
-38
-24
-61
-83
-128
-155
-182
-218
-232
-243
-276
-299
-316
-311
-324
-355
-363
-316
-345
-387
-361
-378
-353
-335
-364
-367
-366
-363
-368
-358
-329
-324
-311
-337
-331
-313
-291
-321
-331
-142
387
1008
1364
1477
1393
1173
871
662
449
312
237
223
172
148
51
-42
-94
-84
-44
-33
20
10
-30
-32
-82
-92
-129
-192
-217
-229
-241
-279
-275
-274
-303
-319
-307
-287
-310
-334
-342
-324
-344
-323
-327
-316
-294
-288
-292
-315
-312
-303
-303
-281
-297
-298
-283
-171
272
862
1254
1387
1392
1206
920
676
453
288
206
189
192
141
25
-24
-65
-83
-33
32
14
75
42
-14
-35
-83
-152
-162
-140
-181
-206
-211
-241
-251
-253
-281
-289
-289
-307
-251
-265
-324
-289
-263
-269
-289
-293
-273
-278
-270
-259
-243
-254
-251
-246
-111
339
867
1207
1323
1299
1106
859
637
459
341
271
267
239
223
158
28
-13
-17
-16
-16
33
40
8
4
-23
-69
-102
-123
-123
-166
-161
-212
-237
-233
-276
-281
-234
-261
-283
-298
-290
-270
-323
-323
-287
-294
-319
-306
-272
-285
-277
-294
-268
-259
-273
-274
-290
-268
-41
456
948
1266
1361
1281
1059
844
647
451
377
303
274
255
193
108
54
10
-29
6
18
34
17
16
1
-12
-74
-109
-107
-164
-179
-209
-232
-245
-258
-273
-281
-294
-318
-324
-333
-334
-319
-309
-324
-365
-347
-329
-296
-310
-303
-303
-311
-287
-318
-323
-293
-311
-280
4
527
1006
1248
1269
1143
937
725
490
376
309
243
224
191
123
36
-27
-12
10
32
29
28
17
-13
-36
-67
-104
-146
-134
-151
-201
-203
-237
-276
-271
-283
-274
-286
-306
-338
-340
-327
-332
-326
-317
-297
-311
-313
-292
-273
-277
-303
-271
-301
-317
-291
-184
128
599
992
1208
1195
1040
821
589
422
290
222
237
208
176
101
-3
-31
-19
8
21
15
21
4
-20
-76
-66
-93
-143
-190
-191
-200
-242
-248
-259
-272
-278
-278
-309
-295
-295
-318
-314
-315
-307
-308
-310
-326
-314
-308
-314
-313
-272
-269
-321
-299
-331
-326
-307
-137
251
753
1025
1142
1126
915
694
494
364
311
300
252
270
170
89
12
-14
-12
-20
11
8
39
6
-13
-27
-68
-84
-139
-198
-205
-216
-236
-271
-297
-314
-305
-293
-295
-335
-330
-325
-347
-344
-351
-359
-334
-339
-347
-343
-357
-355
-361
-327
-319
-307
-332
-313
-318
-335
-307
-164
219
652
926
1006
955
821
639
435
339
234
188
186
207
126
81
31
-26
-36
-20
1
-13
-22
1
-33
-74
-89
-110
-134
-161
-130
-164
-199
-215
-243
-248
-241
-260
-276
-285
-260
-265
-277
-277
-270
-299
-286
-265
-258
-286
-307
-273
-276
-267
-272
-247
-241
-269
-263
-191
15
448
864
1052
1040
899
746
538
349
257
189
186
168
145
84
21
-14
-30
16
23
26
42
64
7
-27
-30
-33
-77
-70
-115
-167
-168
-145
-178
-179
-196
-212
-195
-190
-196
-172
-191
-227
-225
-216
-233
-235
-224
-231
-203
-209
-183
-206
-219
-203
-197
-45
305
764
1036
1118
1044
822
617
431
323
240
204
202
170
123
43
-10
-49
-33
-11
23
34
45
26
-3
-53
-57
-111
-156
-191
-165
-124
-139
-180
-168
-195
-170
-184
-211
-218
-231
-208
-211
-192
-219
-221
-223
-257
-217
-206
-197
-214
-195
-191
-196
-185
3
414
813
1109
1222
1150
955
751
558
417
311
265
247
219
187
85
4
-2
14
-17
-22
5
-25
0
-14
-54
-71
-102
-98
-123
-155
-173
-203
-208
-222
-199
-201
-219
-209
-250
-237
-239
-242
-264
-254
-226
-246
-253
-238
-232
-246
-212
-203
-221
-231
-198
-191
-248
-218
-24
410
874
1187
1271
1203
1021
768
551
395
306
291
288
244
167
80
9
-4
-23
-2
5
14
8
-5
-28
-37
-87
-153
-164
-170
-199
-221
-215
-220
-260
-241
-244
-232
-231
-240
-251
-269
-280
-271
-285
-239
-257
-267
-228
-246
-295
-254
-199
-239
-247
-244
-201
-242
-175
130
595
1031
1234
1235
1064
817
596
398
284
197
171
140
71
31
-32
-41
-45
-72
-30
-8
25
11
-8
-43
-108
-129
-151
-169
-187
-236
-224
-223
-227
-237
-258
-238
-294
-263
-244
-254
-225
-235
-255
-260
-230
-259
-220
-198
-264
-269
-209
-217
-200
-64
373
829
1115
1158
1075
856
609
421
267
136
102
96
79
-10
-36
-70
-60
-9
28
78
55
30
23
-14
-69
-123
-140
-152
-136
-152
-162
-226
-230
-224
-165
-183
-236
-227
-209
-222
-210
-216
-222
-197
-173
-205
-225
-243
-210
-23
421
921
1162
1190
1071
899
670
499
367
316
328
292
267
181
99
13
-32
-50
-16
-5
3
-2
-63
-81
-68
-95
-125
-151
-176
-193
-211
-241
-277
-237
-245
-272
-303
-264
-293
-300
-284
-311
-286
-315
-293
-272
-319
-311
-308
-302
-278
-288
-314
-293
-284
-302
-311
-317
-146
248
731
1075
1226
1161
936
715
536
402
307
288
205
223
197
129
23
-53
-45
-39
-58
-16
-20
-44
-55
-83
-107
-174
-186
-192
-228
-242
-252
-258
-267
-265
-315
-314
-313
-326
-299
-337
-343
-325
-361
-322
-315
-354
-339
-325
-314
-320
-289
-293
-304
-311
-299
-329
-311
-189
163
608
958
1115
1087
914
681
489
333
219
161
186
174
127
62
-30
-84
-92
-50
-58
-26
-42
-72
-58
-100
-136
-155
-139
-200
-210
-219
-241
-244
-272
-273
-243
-273
-285
-312
-301
-266
-268
-266
-307
-286
-277
-269
-289
-310
-262
-260
-270
-257
-268
-281
-180
113
481
863
1036
1010
822
620
437
262
151
105
89
78
19
-60
-79
-77
-69
-46
12
33
23
-4
-44
-56
-75
-144
-127
-158
-187
-164
-172
-195
-185
-158
-207
-220
-213
-209
-230
-219
-169
-178
-176
-182
-194
-186
-183
-184
-212
-184
-3
320
710
996
1080
982
760
530
379
270
160
171
160
119
54
12
-23
-33
-1
-26
16
12
-19
-26
-41
-62
-82
-143
-127
-148
-188
-158
-156
-206
-181
-187
-244
-230
-214
-221
-225
-246
-242
-244
-223
-211
-208
-211
-196
-206
-237
-215
-195
-193
-190
-112
246
725
1064
1221
1147
966
723
514
387
278
267
249
252
216
145
38
-22
0
-17
-28
6
19
-15
-21
-14
-67
-109
-115
-121
-166
-158
-210
-222
-183
-218
-252
-259
-249
-235
-245
-217
-244
-254
-286
-223
-255
-255
-269
-249
-249
-239
-248
-240
-255
-208
-215
-237
-277
-226
55
532
1015
1233
1228
1073
870
614
424
301
243
207
199
173
133
44
-24
-59
-105
-28
-7
6
-12
-16
-71
-73
-94
-106
-166
-207
-168
-229
-245
-248
-221
-279
-258
-254
-253
-282
-278
-292
-295
-280
-291
-288
-273
-257
-242
-248
-293
-269
-227
-254
-271
-250
-255
-168
128
630
1051
1196
1174
966
720
491
279
163
127
86
88
56
-24
-79
-82
-90
-67
-19
10
20
31
-39
-91
-87
-144
-157
-178
-185
-178
-220
-243
-241
-221
-259
-266
-259
-236
-247
-260
-211
-251
-260
-242
-246
-266
-227
-269
-234
-206
-213
-226
-163
67
529
931
1161
1229
1064
827
528
371
263
127
152
126
111
62
-33
-79
-50
-39
13
62
63
43
27
-42
-62
-86
-149
-171
-137
-125
-188
-194
-211
-196
-206
-189
-219
-195
-253
-252
-266
-267
-231
-228
-228
-217
-222
-213
-224
-213
-174
41
548
1060
1303
1311
1158
940
743
532
439
349
286
274
273
200
94
-4
-13
-17
15
26
21
-9
-1
-56
-61
-98
-108
-172
-180
-184
-213
-227
-223
-233
-296
-290
-278
-308
-268
-286
-295
-273
-256
-258
-273
-295
-293
-268
-264
-278
-276
-252
-253
-280
-256
-221
-74
400
945
1271
1309
1174
966
705
498
360
278
264
249
238
187
115
-6
-51
-45
-44
-7
-12
-39
-20
-61
-95
-139
-162
-210
-206
-208
-240
-265
-253
-280
-289
-316
-252
-305
-326
-322
-314
-318
-306
-314
-298
-311
-281
-308
-323
-334
-307
-274
-271
-269
-287
-278
-281
-241
62
571
993
1162
1148
990
782
540
315
204
159
142
156
104
30
-65
-99
-94
-83
-46
-1
-54
-34
-26
-45
-85
-155
-182
-170
-230
-254
-254
-230
-205
-254
-288
-267
-309
-288
-276
-294
-273
-274
-291
-320
-296
-270
-263
-267
-272
-249
-275
-267
-228
-145
221
659
991
1070
1032
846
587
384
203
114
31
68
61
31
-50
-90
-69
-62
17
54
16
10
33
10
-49
-113
-132
-133
-152
-164
-162
-219
-226
-212
-220
-225
-229
-232
-225
-216
-251
-228
-221
-229
-258
-252
-233
-203
-239
-173
44
478
894
1142
1183
1090
872
640
451
322
279
251
229
200
147
87
-4
-30
-23
-21
16
5
-20
-30
-88
-82
-90
-95
-137
-187
-200
-212
-242
-201
-262
-276
-244
-265
-271
-266
-273
-318
-267
-255
-274
-269
-277
-247
-249
-234
-246
-240
-262
-280
-273
-276
-243
-53
401
871
1158
1226
1140
950
709
515
372
245
203
218
226
162
50
-17
-58
-55
-46
-43
-67
-47
-36
-72
-98
-126
-157
-203
-197
-231
-252
-233
-263
-282
-311
-288
-283
-287
-283
-297
-324
-315
-265
-267
-299
-307
-294
-288
-310
-271
-288
-288
-269
-294
-262
-265
-207
81
614
1049
1232
1192
1001
784
512
345
195
117
129
104
47
-6
-71
-102
-64
-23
-27
2
17
11
-25
-37
-99
-129
-189
-153
-215
-219
-196
-232
-256
-242
-232
-215
-205
-252
-249
-257
-230
-218
-213
-220
-219
-215
-204
-204
-65
315
810
1130
1249
1166
944
733
498
348
247
209
194
117
52
-9
-34
-56
-15
-6
10
29
-9
-14
-55
-77
-107
-151
-149
-198
-227
-236
-226
-209
-265
-256
-250
-266
-250
-264
-291
-249
-255
-285
-267
-240
-252
-252
-256
-261
-273
-145
179
729
1186
1391
1396
1224
925
689
507
406
357
333
302
295
249
95
27
-4
9
-25
-10
18
21
-16
-54
-75
-135
-138
-186
-212
-256
-291
-298
-304
-326
-329
-320
-316
-341
-354
-324
-346
-374
-345
-356
-318
-318
-344
-343
-311
-311
-319
-295
-299
-192
220
799
1218
1385
1283
1122
864
603
419
346
306
272
255
219
100
-10
-33
-69
-14
15
29
50
25
-68
-120
-112
-151
-196
-236
-241
-295
-299
-283
-289
-273
-300
-299
-295
-287
-282
-303
-301
-294
-294
-308
-297
-310
-288
-284
-315
-286
-107
332
824
1132
1255
1180
992
744
548
390
289
271
220
156
88
-45
-80
-86
-58
-18
17
15
9
-39
-108
-125
-187
-199
-200
-273
-271
-271
-290
-303
-319
-313
-327
-322
-356
-366
-374
-389
-408
-422
-374
-367
-200
244
739
1104
1168
1122
932
689
478
412
343
334
338
238
141
50
-74
-109
-57
-62
-46
-55
-64
-73
-96
-119
-175
-252
-231
-248
-274
-330
-329
-324
-302
-310
-373
-352
-373
-378
-395
-426
-329
-67
394
821
1025
984
821
648
459
357
297
243
259
207
119
6
-92
-157
-165
-128
-131
-83
-80
-131
-157
-175
-198
-218
-267
-314
-347
-351
-385
-362
-380
-419
-404
-415
-434
-459
-433
-446
-438
-442
-449
-446
-320
22
453
769
880
838
670
464
334
240
202
191
177
135
81
-51
-135
-168
-188
-187
-147
-117
-158
-180
-174
-194
-224
-274
-279
-314
-333
-398
-390
-394
-389
-362
-389
-423
-402
-404
-403
-417
-428
-441
-423
-395
-389
-397
-395
-390
-383
-321
-389
-391
-385
-384
-420
-404
-388
-357
-368
-380
-332
-226
122
584
906
979
838
587
409
225
106
128
116
91
78
35
-31
-122
-86
-11
21
-20
16
-7
-36
-63
-100
-142
-151
-152
-162
-150
-192
-208
-192
-167
-190
-188
-201
-214
-200
-208
-225
-200
-248
-205
-165
-184
-150
-152
-202
-192
-130
137
567
871
877
794
662
451
277
185
146
154
171
155
88
27
-56
-70
-66
-43
-2
-12
-21
-27
5
-33
-82
-113
-115
-146
-173
-184
-197
-184
-212
-187
-178
-212
-232
-192
-179
-202
-162
-235
-219
-173
-187
-183
-161
-200
-192
-198
-111
79
485
851
975
908
749
574
320
233
196
122
178
185
120
48
-4
-22
-31
-50
-27
-10
-23
-14
-28
-40
-90
-88
-118
-161
-202
-210
-241
-231
-176
-203
-201
-201
-238
-250
-230
-238
-157
-202
-262
-207
-188
-176
-213
-274
-198
-223
-230
-206
-183
-198
-250
-105
177
579
924
992
932
738
516
299
151
108
118
77
98
52
-26
-65
-84
-68
-39
-26
-17
26
-9
-7
-69
-120
-134
-109
-140
-143
-175
-221
-233
-190
-211
-210
-203
-199
-213
-204
-240
-213
-229
-224
-169
-182
-197
-189
-200
-208
-168
-13
355
732
863
867
705
516
308
176
44
38
49
23
-24
-63
-120
-135
-76
-56
-41
1
-24
-25
-62
-95
-102
-147
-150
-175
-192
-195
-153
-131
-171
-191
-189
-190
-190
-169
-203
-182
-141
-175
-157
-146
-126
123
515
846
948
823
661
406
224
150
51
76
93
66
28
-48
-119
-101
-111
-86
-23
-21
-48
-76
-60
-90
-117
-107
-129
-150
-161
-160
-210
-153
-177
-217
-175
-155
-190
-175
-169
-192
-209
-193
-170
-180
-161
-184
-166
-175
-192
-208
-107
-58
191
610
938
1032
954
755
521
308
192
120
82
87
121
103
32
-59
-88
-71
-70
-12
-5
4
-56
-46
-63
-80
-70
-133
-144
-145
-152
-173
-174
-142
-167
-156
-138
-173
-187
-224
-201
-181
-174
-128
-143
-186
-171
-159
-145
-126
-132
-134
-68
-127
93
474
826
1113
1091
873
656
427
279
181
83
111
93
6
4
-29
-46
-50
-19
-31
-6
36
2
-10
-46
-87
-68
-104
-84
-96
-128
-69
-99
-108
-94
-140
-165
-115
-114
-176
-184
-152
-139
-172
-146
-127
-148
-150
-124
-58
183
632
1002
1106
986
811
570
331
190
89
75
79
55
19
-29
-84
-79
-91
-35
21
65
35
38
-25
-120
-145
-123
-103
-132
-134
-153
-157
-142
-122
-131
-120
-126
-168
-174
-194
-148
-157
-146
-179
-133
62
445
867
1099
1116
983
722
498
282
134
72
98
108
85
23
-100
-111
-122
-80
-61
0
43
-22
-89
-108
-103
-107
-121
-124
-165
-172
-156
-170
-194
-141
-190
-178
-209
-206
-157
-203
-187
-179
-166
-185
-196
-167
-137
198
700
1042
1196
1120
943
662
389
245
121
94
61
96
80
-53
-112
-121
-122
-101
-82
-29
-22
-60
-110
-92
-114
-134
-128
-172
-222
-231
-201
-232
-256
-235
-257
-204
-189
-220
-230
-209
-229
-222
-259
-223
-181
-221
-178
-186
-91
280
826
1091
1165
1054
803
555
339
198
80
70
6
-9
-39
-44
-117
-113
-112
-81
-37
-25
-45
-60
-57
-122
-181
-183
-183
-158
-168
-163
-210
-227
-258
-253
-201
-237
-256
-182
-253
-250
-216
-236
-213
-186
-188
20
507
911
1117
1081
903
634
379
224
57
16
-2
-18
-74
-136
-139
-128
-140
-113
-74
-45
-56
-22
-81
-86
-140
-184
-166
-155
-172
-208
-209
-245
-237
-213
-198
-182
-194
-245
-241
-176
-82
221
694
1053
1110
998
772
501
316
108
16
9
-20
-77
-105
-163
-116
-169
-121
-105
-85
-75
-81
-35
-93
-160
-172
-219
-186
-188
-215
-244
-215
-190
-214
-285
-241
-201
-272
-221
-242
-232
-154
190
733
1051
1093
999
821
590
401
223
76
57
-15
1
27
-61
-140
-179
-184
-109
-110
-79
-102
-83
-107
-120
-141
-172
-192
-173
-238
-246
-209
-212
-227
-232
-242
-235
-237
-250
-207
-261
-244
-233
-274
-262
-261
-216
-210
-173
115
634
1090
1254
1195
1000
745
492
274
119
114
49
59
-15
-25
-98
-152
-174
-126
-99
-20
-75
-78
-38
-111
-177
-183
-184
-217
-189
-271
-248
-234
-210
-226
-213
-216
-194
-256
-228
-256
-283
-266
-252
-200
-180
-206
-222
-202
-119
146
647
1051
1295
1206
926
735
444
270
103
39
2
6
-27
-51
-132
-167
-153
-148
-45
53
19
-25
-22
-74
-149
-183
-170
-207
-144
-186
-170
-196
-231
-233
-160
-205
-268
-270
-234
-280
-320
-270
-207
-226
-222
-111
319
820
1194
1266
1174
968
643
437
237
128
47
40
66
8
-87
-150
-153
-103
-35
-26
-36
-93
-80
-61
-103
-175
-217
-244
-251
-265
-236
-219
-227
-229
-211
-236
-231
-226
-235
-221
-252
-223
-231
-243
-239
-115
360
892
1244
1353
1231
968
699
457
252
146
105
75
44
-18
-33
-147
-100
-111
-33
-32
-29
-80
-145
-125
-96
-188
-228
-197
-227
-261
-248
-281
-285
-252
-199
-250
-264
-292
-312
-311
-252
-313
-310
-276
-308
-316
-296
-246
-225
-292
-111
431
994
1361
1441
1316
1031
743
531
295
202
164
129
91
13
-78
-94
-143
-163
-83
-74
-70
-73
-67
-107
-156
-158
-183
-222
-224
-269
-256
-239
-245
-265
-279
-299
-275
-265
-261
-290
-289
-303
-279
-294
-283
-255
-248
-215
-263
-295
-224
-109
321
932
1345
1448
1345
1042
756
514
287
180
113
91
30
-12
-100
-134
-127
-48
-34
-95
-5
-30
-90
-173
-153
-190
-168
-184
-163
-200
-301
-282
-267
-266
-243
-258
-308
-303
-265
-247
-314
-322
-306
-299
-239
-264
-271
-247
37
541
1121
1412
1443
1252
939
666
483
227
102
108
122
-1
-74
-132
-168
-163
-139
-73
-27
-62
-82
-83
-135
-165
-142
-226
-253
-237
-263
-306
-276
-261
-310
-291
-326
-285
-295
-324
-260
-301
-317
-340
-336
-351
-317
-273
-317
-272
-194
242
807
1314
1435
1313
1141
883
562
401
242
101
86
112
-8
-69
-65
-81
-152
-106
-49
-5
-24
-78
-117
-164
-158
-176
-228
-240
-294
-268
-270
-246
-268
-304
-249
-227
-335
-369
-345
-355
-354
-310
-285
-308
-312
-313
-311
-226
-282
-284
-256
-258
-253
1
597
1178
1422
1427
1280
951
675
453
272
138
133
98
76
29
-106
-129
-183
-124
-80
-58
-23
-44
-117
-120
-118
-148
-179
-188
-250
-245
-301
-276
-260
-302
-331
-304
-277
-284
-276
-304
-300
-280
-277
-262
-304
-319
-313
-296
-273
-285
-261
-232
-210
39
597
1044
1359
1335
1190
922
644
418
243
140
45
6
21
-64
-83
-116
-147
-91
-51
-36
-40
-38
-43
-87
-79
-151
-235
-217
-223
-233
-293
-254
-240
-283
-303
-232
-263
-278
-258
-268
-277
-285
-296
-279
-274
-268
-266
-301
-242
-202
-250
-152
246
793
1216
1367
1312
1094
842
586
331
164
98
84
50
4
-44
-96
-139
-86
-62
-28
35
14
9
-50
-115
-100
-186
-222
-202
-218
-216
-229
-220
-219
-209
-283
-244
-229
-273
-268
-251
-307
-279
-290
-301
-290
-286
-243
-246
-257
-239
-266
-203
181
695
1128
1409
1423
1235
986
740
504
306
252
229
192
149
71
-11
-75
-72
-78
-27
-40
-17
-28
-48
-59
-89
-120
-182
-190
-226
-251
-249
-291
-276
-276
-276
-294
-282
-283
-311
-307
-305
-285
-242
-261
-269
-324
-294
-280
-276
-267
-233
-252
-237
-199
-174
271
847
1254
1468
1410
1179
938
710
484
291
216
212
179
116
87
-27
-86
-84
-71
-9
13
30
-32
-95
-102
-129
-213
-187
-185
-233
-298
-272
-238
-273
-291
-323
-296
-314
-323
-312
-317
-301
-304
-339
-295
-295
-258
-284
-314
-314
-269
-289
-294
-284
-291
-264
-4
466
1030
1373
1452
1293
1070
771
543
383
239
201
190
122
43
-6
-93
-93
-69
-20
-1
14
-37
-67
-100
-160
-163
-154
-191
-219
-223
-209
-234
-270
-300
-328
-272
-296
-308
-320
-333
-334
-322
-336
-314
-337
-306
-306
-291
-295
-268
-265
-225
-217
18
527
1098
1380
1428
1295
1049
784
548
358
228
165
136
108
36
-81
-115
-84
-77
-39
12
-3
-37
-27
-57
-146
-169
-184
-206
-258
-254
-237
-245
-260
-291
-312
-307
-257
-323
-311
-333
-353
-323
-293
-324
-384
-336
-301
-319
-294
-279
-291
-240
-307
-230
-110
338
962
1375
1501
1411
1199
955
748
506
361
287
239
259
204
87
31
2
-42
-9
-9
-36
-31
-26
-31
-78
-119
-157
-180
-227
-229
-212
-276
-287
-262
-278
-297
-279
-291
-249
-215
-228
-273
-291
-332
-338
-328
-334
-376
-368
-312
-313
-325
-323
-312
-367
-291
-32
535
1082
1413
1495
1392
1114
868
644
471
351
311
263
299
170
53
-30
-37
-8
-5
17
27
58
-42
-88
-86
-145
-104
-165
-226
-228
-248
-304
-325
-302
-360
-369
-349
-371
-358
-344
-369
-366
-325
-328
-345
-316
-359
-350
-314
-378
-343
-323
-333
-312
-313
-310
-204
263
855
1339
1546
1528
1315
1045
792
554
361
305
273
223
191
126
19
6
-39
-40
0
4
-31
-26
-36
-86
-195
-181
-180
-256
-223
-219
-306
-324
-313
-366
-332
-342
-338
-328
-329
-357
-393
-390
-399
-399
-331
-325
-357
-323
-292
-294
-317
-321
-263
87
643
1181
1460
1507
1372
1070
789
535
354
309
247
162
93
-12
-54
-84
-82
-14
-49
-9
38
-3
-74
-90
-98
-189
-231
-212
-222
-333
-290
-300
-302
-298
-306
-333
-305
-341
-348
-364
-334
-322
-340
-351
-311
-325
-341
-345
-177
313
918
1307
1446
1363
1183
928
666
472
357
300
300
235
138
56
-51
-88
-15
16
-2
-21
-10
-25
-84
-103
-137
-178
-162
-246
-300
-245
-267
-304
-303
-328
-360
-355
-356
-371
-318
-347
-353
-283
-288
-352
-337
-334
-372
-328
-156
236
763
1197
1416
1394
1184
971
771
598
489
425
413
363
300
197
67
-9
-35
-42
-20
4
14
-9
-59
-113
-168
-185
-224
-225
-277
-285
-297
-305
-322
-344
-375
-409
-385
-370
-377
-345
-330
-386
-359
-354
-380
-364
-386
-328
-342
-352
-356
-363
-374
-396
-371
-148
299
811
1197
1382
1294
1080
883
662
524
422
404
357
337
255
113
35
-40
-77
-36
8
2
-7
-12
-79
-160
-145
-150
-207
-219
-263
-283
-330
-355
-374
-358
-363
-381
-386
-362
-358
-409
-385
-379
-427
-386
-418
-413
-402
-397
-412
-408
-404
-406
-413
-397
-287
97
596
959
1088
1034
878
690
498
323
217
230
186
167
128
29
-77
-131
-111
-69
-55
-66
-79
-97
-92
-131
-185
-232
-221
-223
-303
-319
-337
-302
-345
-383
-370
-394
-401
-375
-380
-396
-382
-397
-417
-383
-421
-368
-394
-367
-391
-381
-379
-409
-370
-352
-200
214
685
976
1001
940
767
570
400
279
233
212
179
155
87
-33
-66
-97
-120
-63
-17
-37
-63
-78
-66
-152
-151
-212
-256
-261
-233
-251
-314
-277
-277
-328
-320
-314
-337
-298
-297
-323
-336
-364
-304
-318
-308
-292
-282
-308
-365
-336
-328
-331
-306
-265
-298
-311
-296
-308
-290
-248
-206
50
532
925
1099
1059
891
686
506
371
293
264
235
223
224
171
30
-54
-39
-5
24
0
-24
-17
-11
-50
-74
-127
-110
-128
-177
-181
-181
-228
-269
-235
-219
-261
-271
-261
-240
-224
-276
-267
-295
-255
-242
-261
-254
-226
-245
-233
-249
-269
-259
-208
-202
-206
-257
-204
-207
-196
9
401
823
1059
1114
1002
801
553
406
282
217
225
221
173
125
35
-76
-31
-52
-31
8
41
17
12
-48
-51
-43
-74
-122
-158
-170
-183
-195
-173
-209
-218
-222
-205
-197
-177
-197
-247
-231
-220
-222
-201
-195
-199
-190
-160
-215
-181
-177
-167
-176
-214
-198
-194
-212
-114
274
739
1069
1141
1097
911
674
473
308
235
221
174
137
109
72
-7
-10
-16
0
37
29
63
35
-14
-20
-43
-59
-134
-156
-180
-169
-218
-204
-189
-189
-165
-171
-204
-196
-175
-191
-210
-243
-252
-218
-166
-194
-167
-177
-178
-164
-145
-183
-221
-157
-194
-142
91
524
997
1204
1184
1090
905
687
469
309
278
273
251
215
149
47
0
-27
-37
-17
16
58
20
-3
-42
-65
-98
-82
-123
-185
-194
-190
-198
-200
-200
-177
-173
-241
-229
-249
-210
-234
-222
-238
-240
-226
-248
-238
-176
-209
-175
-217
-201
-238
-219
-230
-233
-205
-203
-187
40
509
1002
1256
1295
1193
959
740
544
383
296
231
243
197
158
106
18
-48
-51
-24
-24
42
18
-56
-78
-91
-110
-126
-168
-213
-226
-257
-245
-282
-299
-261
-246
-240
-244
-247
-275
-282
-269
-266
-266
-272
-219
-208
-181
-216
-203
-208
-207
-226
-214
-223
-221
-199
-73
277
796
1188
1295
1337
1151
921
670
478
333
215
207
207
146
88
25
-41
-35
16
46
6
28
-22
-10
-42
-131
-117
-150
-169
-172
-190
-223
-237
-224
-247
-252
-225
-257
-272
-294
-290
-286
-284
-258
-262
-266
-219
-236
-250
-247
-234
-264
-242
-180
-12
421
922
1217
1303
1241
1067
833
607
371
276
190
163
137
90
23
4
-37
8
1
-16
-32
-26
-7
-12
-53
-95
-162
-191
-195
-257
-212
-245
-232
-232
-247
-245
-272
-316
-270
-284
-287
-271
-303
-280
-263
-253
-272
-268
-250
-245
-243
-260
-210
-119
272
802
1179
1338
1316
1168
961
726
536
397
278
238
226
179
118
-1
-48
-20
-12
-7
22
26
7
-53
-64
-87
-113
-143
-166
-179
-238
-254
-271
-262
-242
-261
-289
-283
-304
-301
-274
-318
-283
-347
-308
-301
-285
-321
-314
-293
-286
-317
-293
-260
-243
-258
-103
321
840
1271
1473
1455
1262
981
715
548
401
294
299
257
219
167
81
9
7
-8
11
20
2
28
-20
-54
-102
-113
-137
-183
-204
-229
-242
-253
-236
-281
-296
-257
-332
-303
-288
-302
-306
-312
-338
-351
-321
-331
-346
-317
-310
-318
-311
-328
-310
-311
-304
-337
-306
-296
-154
303
902
1260
1423
1406
1220
962
697
508
383
317
263
230
198
92
47
-2
-40
14
11
16
24
7
-10
-39
-67
-78
-139
-209
-224
-256
-251
-282
-290
-306
-335
-337
-343
-332
-350
-317
-320
-311
-350
-347
-330
-339
-359
-344
-369
-363
-354
-340
-326
-341
-327
-340
-191
168
690
1137
1350
1360
1206
950
701
478
329
273
220
195
141
87
-19
-9
8
-21
-21
33
17
18
-3
-78
-95
-107
-148
-155
-205
-255
-236
-226
-285
-277
-313
-309
-317
-315
-340
-329
-348
-377
-329
-342
-359
-328
-345
-333
-292
-317
-336
-361
-369
-295
-1
528
1032
1319
1369
1254
1036
814
631
458
358
312
306
272
226
117
42
23
-11
-5
18
28
-4
9
5
-5
-69
-89
-103
-140
-196
-213
-262
-261
-277
-307
-302
-339
-382
-341
-373
-374
-369
-396
-383
-366
-367
-370
-353
-336
-317
-342
-338
-389
-372
-353
-348
-166
289
882
1280
1406
1334
1162
939
707
510
386
320
279
271
225
160
92
-19
-6
-6
46
44
70
34
-15
-39
-97
-123
-159
-158
-211
-229
-280
-307
-283
-346
-335
-359
-321
-366
-348
-367
-370
-398
-392
-389
-382
-362
-351
-384
-350
-373
-369
-369
-411
-196
219
727
1141
1333
1315
1171
933
649
512
409
347
326
266
222
122
30
-9
-7
-5
8
46
41
45
-13
-15
-82
-125
-145
-216
-257
-262
-263
-308
-330
-345
-357
-347
-361
-381
-364
-365
-379
-367
-369
-397
-373
-374
-395
-376
-357
-275
68
602
1045
1273
1268
1066
855
655
473
327
295
258
236
169
60
9
-30
-41
26
65
80
17
-10
1
-49
-116
-156
-200
-228
-238
-236
-270
-297
-313
-323
-334
-340
-347
-377
-369
-365
-373
-397
-393
-373
-406
-284
-9
456
917
1113
1176
1081
882
719
528
400
361
390
308
231
176
5
-45
-46
-41
-14
-13
-12
-37
-41
-89
-134
-198
-240
-286
-303
-349
-376
-384
-355
-379
-387
-426
-449
-436
-429
-425
-456
-459
-473
-451
-450
-453
-439
-460
-458
-495
-488
-489
-447
-486
-456
-485
-448
-440
-457
-459
-469
-429
-408
-312
14
535
935
1069
1047
913
694
479
350
298
231
263
254
167
91
-12
-34
-61
-46
-67
-36
-73
-66
-71
-130
-126
-166
-167
-200
-227
-240
-284
-295
-275
-323
-331
-322
-326
-309
-337
-347
-292
-297
-318
-311
-308
-359
-339
-296
-324
-340
-302
-307
-327
-305
-304
-293
-290
-256
-314
-281
-298
-295
-254
-131
265
719
970
1044
910
713
490
296
195
170
115
153
153
107
24
-30
-56
-61
-12
-4
0
9
-35
-59
-53
-79
-79
-115
-165
-153
-169
-171
-171
-185
-234
-226
-151
-143
-180
-204
-154
-173
-213
-203
-205
-191
-182
-188
-141
-147
-187
-167
-178
-113
-162
-160
-154
-180
-189
-200
-142
77
503
847
988
987
855
641
400
275
222
138
125
158
106
35
12
-4
-24
-26
-5
56
44
26
26
-3
-70
-56
-90
-91
-61
-120
-71
-144
-172
-145
-142
-168
-152
-144
-161
-151
-170
-122
-136
-162
-170
-175
-145
-114
-139
-148
-136
-125
-138
-135
-176
-157
-114
-81
-97
-120
-102
58
496
882
1102
1116
982
776
564
404
272
219
197
200
189
128
105
47
-14
-22
43
21
9
45
37
-2
-21
-11
-58
-103
-98
-122
-141
-151
-133
-180
-181
-150
-173
-166
-140
-146
-149
-144
-136
-145
-177
-154
-148
-167
-145
-163
-202
-146
-150
-147
-115
-157
-171
-168
-163
-79
282
740
1019
1155
1113
916
655
436
318
244
186
150
155
149
64
33
0
-40
-6
-23
19
2
29
10
-13
-43
-86
-82
-99
-137
-117
-107
-160
-204
-175
-176
-193
-150
-156
-159
-192
-208
-217
-188
-190
-185
-199
-179
-159
-153
-154
-170
-176
-131
-147
-153
-136
53
496
898
1102
1116
1031
792
612
414
254
169
131
157
142
95
15
-62
-20
-5
46
38
43
29
-7
-21
-33
-55
-102
-95
-77
-138
-158
-170
-171
-141
-161
-215
-204
-193
-193
-197
-193
-220
-190
-202
-190
-152
-180
-187
-162
-172
-189
-172
-107
174
647
1058
1212
1165
1053
852
646
436
316
240
227
223
170
123
52
-10
-31
5
-5
25
29
-24
-27
-19
-40
-90
-126
-157
-145
-160
-175
-189
-213
-208
-223
-231
-233
-241
-222
-240
-240
-229
-217
-222
-244
-223
-229
-272
-265
-223
-244
-239
-220
-232
-229
-183
12
474
963
1241
1339
1228
982
691
531
396
317
264
228
252
214
109
-22
-17
-4
14
12
10
23
-29
-26
-26
-105
-98
-134
-188
-195
-212
-221
-256
-265
-272
-245
-251
-294
-258
-290
-294
-247
-233
-274
-279
-300
-279
-279
-258
-240
-264
-270
-252
-235
-290
-252
-217
-15
433
935
1283
1343
1203
993
756
534
341
261
192
226
186
124
16
-17
-5
-9
10
48
34
-8
-19
-16
-50
-98
-132
-137
-136
-172
-197
-242
-209
-237
-261
-220
-236
-263
-270
-300
-310
-268
-236
-261
-268
-291
-288
-231
-270
-277
-280
-279
-238
-165
135
667
1081
1259
1248
1109
884
593
358
268
216
205
219
160
89
14
-14
4
13
33
61
38
50
-43
-43
-99
-124
-133
-174
-212
-225
-234
-247
-240
-257
-276
-268
-280
-274
-287
-312
-293
-300
-323
-281
-275
-259
-307
-304
-275
-305
-305
-291
-279
-29
488
1027
1303
1377
1244
973
765
556
431
387
290
286
280
218
181
74
25
23
3
21
47
5
23
8
-37
-76
-93
-128
-197
-240
-254
-313
-287
-288
-296
-343
-312
-361
-335
-360
-362
-345
-364
-380
-345
-347
-395
-396
-384
-350
-349
-344
-368
-329
-338
-336
-136
308
907
1277
1402
1288
1083
839
581
392
275
246
229
213
169
95
-12
-31
-71
-35
-14
-11
-12
-34
-51
-78
-125
-155
-198
-224
-272
-302
-319
-299
-321
-332
-375
-343
-337
-359
-388
-380
-373
-389
-348
-332
-396
-413
-389
-349
-357
-381
-367
-378
-384
-309
-5
586
1080
1328
1308
1172
908
664
427
290
214
194
154
98
41
-47
-127
-115
-83
-79
-34
-33
-49
-43
-52
-94
-134
-219
-184
-282
-305
-283
-315
-316
-356
-292
-294
-328
-365
-366
-333
-341
-343
-364
-314
-341
-343
-289
-298
-317
-272
-293
-305
-196
165
673
1131
1328
1299
1084
818
588
391
252
187
186
177
116
32
-55
-94
-34
-15
23
43
36
16
-22
-90
-121
-126
-149
-169
-222
-236
-253
-275
-233
-286
-310
-293
-270
-279
-308
-311
-290
-313
-277
-271
-270
-270
-239
-250
-293
-292
-238
38
626
1106
1351
1348
1204
979
704
500
359
268
288
257
221
186
77
-44
-75
-52
-33
-8
-5
-28
-8
-29
-107
-167
-167
-185
-224
-310
-278
-261
-297
-332
-324
-337
-311
-308
-327
-384
-316
-334
-321
-329
-356
-393
-348
-340
-348
-305
-306
-308
-300
-325
-321
-331
-304
-208
96
703
1175
1380
1389
1173
921
668
448
339
290
206
245
271
189
42
-36
-80
-74
-56
-1
-29
-38
-62
-85
-91
-147
-185
-203
-261
-287
-302
-313
-319
-333
-320
-354
-339
-334
-332
-325
-339
-353
-342
-348
-376
-346
-360
-328
-367
-327
-332
-357
-311
-306
-302
-300
-287
61
650
1138
1350
1367
1185
927
673
429
258
163
193
161
105
104
-27
-88
-56
-30
-19
21
-23
14
-49
-115
-128
-188
-191
-226
-228
-258
-278
-291
-307
-283
-296
-290
-304
-303
-304
-318
-333
-346
-298
-313
-324
-314
-311
-335
-266
-241
-281
-274
-273
-274
-113
332
887
1284
1398
1304
1069
776
546
352
258
151
146
122
109
27
-52
-45
-53
-4
17
0
-18
-43
-64
-84
-109
-157
-168
-190
-255
-256
-261
-289
-297
-302
-293
-316
-275
-312
-305
-284
-305
-305
-328
-307
-270
-263
-274
-254
-256
-288
-295
-289
-142
211
773
1237
1461
1464
1268
1001
747
511
403
306
282
273
222
156
17
-44
-65
-46
-29
13
6
-24
-59
-73
-131
-160
-174
-204
-224
-303
-316
-278
-284
-314
-312
-311
-277
-322
-317
-349
-319
-305
-336
-358
-328
-320
-353
-328
-326
-303
-253
-286
-303
-272
-286
-264
-95
342
949
1376
1524
1451
1237
987
712
500
383
318
265
223
168
108
-1
-65
-55
-39
-26
-40
-30
-66
-74
-101
-153
-130
-171
-202
-215
-273
-288
-297
-307
-316
-311
-323
-314
-291
-288
-325
-320
-323
-343
-337
-350
-350
-321
-317
-305
-300
-310
-310
-311
-313
-275
-89
401
993
1361
1442
1335
1150
863
599
409
270
238
205
163
75
7
-50
-50
-51
-31
5
17
30
-24
-55
-60
-118
-177
-182
-211
-245
-247
-279
-339
-317
-297
-298
-311
-308
-302
-308
-303
-307
-352
-338
-306
-338
-275
-268
-299
-288
-280
-265
-287
-239
-114
265
811
1239
1357
1294
1086
822
583
385
235
166
156
132
98
46
2
-46
-21
27
29
29
35
12
-36
-61
-104
-155
-159
-157
-180
-230
-206
-249
-282
-259
-198
-274
-243
-228
-307
-298
-297
-270
-263
-272
-261
-247
-220
-218
-271
-205
79
556
1026
1272
1277
1135
930
697
519
366
293
249
232
243
176
62
-31
-37
-30
-32
-24
2
18
-14
-76
-73
-88
-151
-174
-218
-224
-236
-272
-281
-290
-281
-285
-263
-294
-312
-288
-320
-354
-347
-303
-280
-316
-303
-288
-303
-307
-287
-260
-266
-275
-311
-298
-282
-51
398
872
1222
1325
1231
1007
795
575
393
314
281
251
251
225
95
31
-6
-19
-13
15
27
21
-10
-59
-75
-109
-141
-175
-193
-200
-245
-260
-278
-279
-283
-296
-298
-313
-325
-322
-321
-300
-316
-324
-323
-320
-345
-313
-305
-289
-315
-289
-265
-309
-286
-302
-301
-220
143
681
1092
1279
1231
1056
824
618
411
237
214
190
214
177
40
-39
-92
-82
-55
6
0
-25
-35
-32
-74
-88
-116
-154
-186
-230
-213
-253
-242
-286
-284
-297
-317
-294
-259
-300
-337
-304
-305
-327
-318
-283
-292
-284
-282
-300
-312
-261
-293
-299
-286
-198
218
709
1053
1172
1135
970
727
475
273
174
116
69
71
30
-73
-94
-102
-129
-71
-28
-14
5
-28
-45
-92
-116
-171
-172
-192
-228
-244
-260
-272
-264
-237
-262
-232
-240
-247
-268
-276
-276
-283
-293
-284
-213
-224
-254
-261
-265
-219
-120
216
708
1045
1168
1075
920
671
497
337
239
205
181
155
82
34
-15
-85
-74
-45
-45
-33
-18
-58
-86
-110
-129
-124
-186
-196
-185
-255
-281
-282
-270
-268
-271
-302
-302
-304
-302
-314
-318
-300
-307
-325
-289
-303
-302
-285
-293
-276
-292
-287
-301
-292
-208
130
630
983
1108
1081
934
668
453
331
247
198
194
178
122
77
-15
-63
-87
-57
-70
-62
-18
-17
-62
-128
-132
-125
-131
-180
-191
-227
-246
-269
-264
-273
-261
-272
-296
-288
-264
-303
-302
-284
-295
-310
-295
-302
-277
-267
-269
-279
-279
-232
-253
-215
72
514
891
1065
1029
870
635
417
277
157
111
103
100
82
-6
-74
-102
-99
-62
-18
-2
-38
-44
-82
-68
-118
-148
-131
-160
-179
-239
-221
-187
-225
-235
-227
-235
-236
-254
-247
-238
-252
-253
-260
-231
-225
-207
-204
-241
-232
-246
-215
-167
127
587
918
1043
996
823
576
349
181
74
63
61
47
39
-33
-77
-111
-63
-37
-22
7
7
-42
-56
-109
-116
-146
-135
-141
-214
-203
-183
-181
-210
-199
-219
-227
-209
-214
-242
-208
-208
-230
-215
-202
-192
-204
-91
307
681
929
1007
895
712
531
340
227
138
143
167
110
78
27
-33
-61
-51
-32
-15
-13
25
-2
-60
-81
-105
-107
-139
-172
-162
-199
-222
-197
-185
-169
-214
-213
-201
-215
-207
-190
-194
-207
-196
-165
96
555
924
1018
1013
902
659
475
347
263
201
195
225
164
46
-20
-31
-35
-4
28
32
4
-43
-91
-94
-109
-153
-135
-156
-190
-161
-219
-229
-191
-217
-232
-219
-246
-246
-267
-215
-263
-262
-236
-217
-234
-224
-217
-237
-225
-215
-222
-222
-217
-217
-214
-212
-187
-47
400
874
1127
1188
1019
760
558
400
277
216
237
219
162
101
32
-37
-26
-52
-76
-32
-25
-23
-43
-66
-105
-116
-126
-157
-158
-192
-197
-210
-208
-225
-266
-232
-189
-249
-251
-231
-232
-221
-218
-240
-275
-265
-257
-241
-215
-191
-209
-213
-244
-226
-203
-216
-189
-191
17
448
824
1035
1019
821
600
409
274
199
137
141
158
103
34
-50
-80
-40
-27
9
-10
-26
-43
-59
-63
-88
-66
-119
-140
-167
-174
-183
-223
-217
-218
-236
-209
-222
-234
-209
-203
-183
-238
-249
-210
-192
-207
-221
-231
-216
-194
-238
-220
-208
-127
160
508
835
917
853
681
482
301
155
103
72
91
125
66
-29
-73
-87
-36
-14
27
24
-3
-42
-44
-49
-88
-111
-127
-134
-122
-155
-164
-203
-201
-190
-167
-152
-179
-149
-165
-186
-194
-220
-193
-174
-163
-165
-157
-157
-128
-59
148
530
844
929
891
697
479
303
210
176
163
174
153
101
43
-13
-39
-40
-11
24
15
-23
-21
-53
-27
-60
-99
-90
-115
-127
-185
-197
-178
-121
-119
-151
-154
-161
-187
-165
-197
-183
-186
-179
-196
-179
-156
-172
-159
-169
-166
-168
-168
-170
-183
-164
-50
284
677
930
1013
953
739
513
314
232
202
197
184
155
140
78
-20
-89
-28
-27
-22
-22
-27
-4
-26
-121
-82
-98
-164
-193
-198
-207
-205
-165
-180
-184
-184
-199
-199
-206
-193
-199
-182
-200
-192
-224
-186
-193
-208
-234
-205
-174
-192
-180
-177
-205
-190
-191
-88
255
707
979
1090
990
774
532
340
201
158
140
134
159
106
16
-52
-83
-45
-48
-43
-51
-34
-54
-87
-73
-94
-120
-176
-167
-170
-151
-158
-165
-183
-179
-210
-219
-184
-174
-197
-208
-187
-193
-196
-194
-175
-215
-215
-192
-201
-243
-171
83
456
801
978
921
741
534
356
239
113
106
82
96
64
-6
-103
-119
-71
-56
-70
-42
-37
-57
-63
-104
-95
-110
-143
-161
-164
-231
-224
-193
-217
-190
-198
-199
-197
-206
-189
-220
-212
-211
-198
-30
370
727
853
796
655
449
287
127
34
28
20
3
1
-51
-109
-125
-133
-89
-21
-26
-58
-71
-73
-139
-97
-128
-150
-190
-229
-211
-229
-219
-184
-182
-175
-198
-268
-224
-207
-228
-205
-202
-43
309
652
795
779
724
510
321
171
77
22
43
43
-2
-45
-91
-126
-117
-56
-55
-71
-75
-76
-122
-103
-118
-150
-150
-197
-167
-166
-215
-177
-211
-200
-163
-169
-191
-231
-215
-195
-248
-260
-160
87
527
807
897
811
608
447
282
162
103
70
57
61
18
-54
-131
-119
-133
-98
-77
-41
-68
-58
-87
-102
-94
-139
-184
-189
-207
-188
-215
-254
-231
-226
-238
-193
-198
-245
-226
-232
-236
-213
-213
-212
-194
-174
-190
-204
-202
-216
-253
-180
63
505
817
955
957
758
527
274
130
78
89
74
86
58
-7
-67
-147
-141
-122
-42
-33
-79
-78
-58
-68
-102
-83
-111
-152
-157
-203
-226
-206
-207
-192
-231
-182
-111
-160
-184
-186
-212
-203
-193
-230
-247
-215
-193
-134
-186
-212
-179
-238
-182
-171
-139
94
468
840
1033
1004
798
503
294
177
94
-14
9
6
-7
-66
-145
-120
-101
-46
25
6
26
-3
-51
-86
-130
-103
-115
-157
-175
-180
-167
-172
-209
-207
-148
-124
-186
-178
-140
-171
-176
-186
-154
-135
-142
-169
-150
-142
-177
-165
-120
-50
142
611
901
1021
970
736
531
287
159
21
10
32
49
16
-11
-54
-68
-101
-46
-49
-58
-10
-54
-98
-71
-93
-115
-114
-128
-118
-181
-214
-139
-121
-170
-130
-133
-169
-145
-175
-163
-141
-168
-173
-136
-136
-136
-119
-151
-125
-107
-131
-165
4
374
727
971
1049
969
737
527
314
177
108
58
55
113
103
13
-42
-39
-67
-70
-51
-45
-54
-44
-13
-9
-45
-74
-183
-159
-152
-150
-148
-144
-146
-176
-163
-156
-150
-106
-168
-140
-152
-172
-160
-169
-146
-147
-138
-146
-163
-138
-123
-107
-152
-85
-12
156
595
978
1083
1023
860
589
376
218
110
65
57
67
29
3
-60
-1
-24
-20
-1
2
16
31
14
-17
-61
-73
-46
-137
-162
-158
-143
-155
-157
-173
-187
-174
-177
-157
-115
-131
-195
-155
-142
-133
-124
-136
-177
-140
-108
-112
-129
-163
-100
-30
227
636
971
1088
1124
951
592
344
212
85
50
35
11
-20
-51
-105
-21
30
-2
9
49
3
13
3
-36
-50
-62
-117
-116
-165
-145
-161
-166
-123
-153
-172
-136
-156
-182
-201
-170
-158
-130
-159
-205
-141
-128
-171
-175
-157
-143
67
501
894
1184
1248
1094
793
572
364
254
217
150
140
127
60
10
-55
-60
-25
-17
-24
11
16
-7
-47
-76
-115
-167
-155
-203
-235
-183
-176
-237
-187
-173
-221
-190
-188
-223
-217
-245
-259
-239
-207
-183
-235
-167
-186
-197
-191
-182
-26
350
837
1229
1355
1230
1008
754
538
366
276
186
199
157
117
32
-17
-41
-56
-41
-38
-4
0
-19
-94
-103
-88
-127
-141
-141
-199
-212
-203
-228
-236
-259
-301
-222
-231
-259
-262
-260
-256
-272
-237
-206
-239
-214
-229
-241
-214
-252
-264
-231
-212
-197
-16
370
889
1242
1349
1333
1111
841
515
327
232
172
181
165
87
0
20
-16
-53
44
4
80
38
-49
-45
-65
-104
-68
-131
-189
-155
-177
-201
-219
-204
-219
-234
-272
-289
-223
-281
-253
-220
-257
-282
-284
-279
-295
-279
-211
-212
-225
-259
-195
-148
182
690
1178
1436
1379
1115
833
605
398
247
142
165
131
103
-7
-83
-86
-88
-1
4
21
20
7
-56
-105
-143
-179
-196
-215
-200
-217
-244
-221
-222
-232
-240
-231
-270
-239
-257
-282
-307
-292
-275
-263
-294
-310
-288
-247
-248
-225
-250
-244
-291
-190
206
729
1174
1412
1399
1199
905
663
469
300
243
233
218
146
69
-2
-64
-10
-55
-28
-14
-18
31
-28
-63
-119
-175
-169
-161
-158
-192
-224
-278
-291
-252
-281
-314
-293
-317
-314
-255
-279
-262
-344
-341
-338
-319
-321
-297
-332
-348
-280
-311
-339
-280
-272
-291
-269
-285
-255
-200
128
724
1218
1430
1407
1184
911
671
423
268
217
229
155
103
81
0
-60
-22
-47
-41
23
-12
-44
-31
-39
-121
-121
-127
-174
-170
-194
-216
-264
-283
-287
-273
-282
-296
-254
-294
-316
-321
-338
-345
-337
-313
-281
-300
-315
-278
-299
-307
-251
-275
-293
-321
-305
-248
-272
-129
261
777
1153
1321
1230
1001
744
467
295
194
117
95
84
53
-9
-84
-87
-63
-64
44
26
16
-24
-29
-103
-167
-177
-167
-186
-208
-225
-265
-235
-204
-269
-290
-296
-286
-309
-289
-287
-291
-280
-320
-305
-289
-259
-304
-305
-268
-274
-246
-243
-273
-230
-227
-195
126
644
1051
1223
1272
1056
787
574
325
199
122
51
58
3
-38
-80
-82
-80
-47
-14
3
30
19
-17
-54
-69
-135
-163
-195
-213
-183
-222
-220
-233
-272
-283
-279
-271
-237
-266
-246
-228
-252
-264
-255
-268
-257
-249
-248
-278
-219
-198
-204
-209
-191
78
598
1096
1303
1285
1170
945
624
430
283
216
180
230
175
63
3
-16
-41
-93
-68
0
-3
-26
-49
-33
-61
-136
-161
-148
-185
-225
-230
-252
-250
-247
-258
-254
-256
-296
-308
-288
-292
-264
-280
-274
-254
-316
-270
-273
-250
-282
-266
-223
-263
-259
-211
-202
-168
77
651
1123
1365
1437
1273
1003
734
514
347
284
285
245
201
145
45
14
-19
-46
-31
9
14
-14
12
-30
-131
-119
-116
-189
-179
-185
-227
-264
-255
-237
-282
-289
-291
-293
-238
-260
-280
-274
-304
-273
-284
-318
-279
-315
-299
-292
-244
-292
-286
-296
-252
-260
-224
168
704
1199
1425
1429
1253
983
705
497
372
290
250
235
174
104
68
-12
-6
0
-3
16
37
54
-11
-57
-97
-104
-130
-169
-197
-207
-281
-291
-272
-274
-289
-270
-316
-290
-265
-314
-323
-290
-278
-308
-286
-297
-338
-306
-271
-261
-283
-256
-297
-285
-32
484
975
1305
1393
1266
1049
742
544
385
286
173
188
159
87
-15
-49
-35
1
-11
1
44
37
0
-11
-72
-137
-145
-175
-194
-175
-236
-269
-323
-277
-268
-291
-318
-272
-302
-292
-313
-324
-278
-300
-308
-278
-302
-272
-251
-321
-309
-312
-198
49
571
1115
1388
1463
1342
1064
808
630
477
369
362
345
296
207
130
35
-65
-68
-55
-9
-8
2
18
-66
-145
-118
-128
-213
-243
-263
-318
-275
-281
-315
-348
-336
-334
-324
-316
-360
-338
-343
-376
-374
-380
-357
-331
-346
-367
-366
-361
-326
-353
-342
-361
-323
-348
-301
-315
-289
-39
540
1153
1459
1548
1399
1146
904
634
501
348
310
310
268
201
128
48
10
-11
-35
1
21
57
15
-58
-117
-124
-166
-180
-253
-286
-318
-310
-332
-333
-317
-374
-342
-345
-375
-388
-367
-303
-366
-404
-365
-356
-388
-387
-391
-329
-355
-364
-345
-392
-377
-358
-328
-348
-335
-165
373
969
1367
1518
1403
1181
874
592
409
256
245
251
229
147
77
-43
-69
-89
-20
-8
23
-8
-28
-50
-52
-114
-205
-184
-226
-238
-262
-286
-329
-351
-339
-349
-341
-327
-320
-383
-352
-376
-364
-339
-327
-382
-377
-333
-341
-362
-353
-346
-366
-295
-355
-275
24
637
1170
1443
1464
1260
1031
685
455
262
191
190
182
126
61
-1
-51
-24
10
53
74
68
34
-33
-15
-71
-161
-159
-152
-202
-217
-207
-206
-279
-301
-261
-293
-266
-242
-275
-298
-306
-257
-324
-338
-294
-335
-332
-302
-305
-291
-295
-303
-144
326
931
1338
1508
1473
1288
1007
769
559
420
368
368
367
310
236
105
28
-26
3
81
70
88
67
32
-75
-83
-113
-129
-148
-201
-268
-276
-263
-273
-291
-311
-336
-331
-290
-364
-376
-311
-311
-349
-378
-398
-362
-377
-411
-353
-366
-413
-375
-375
-356
-318
-341
-318
-335
-387
-378
-173
273
940
1405
1584
1496
1263
1032
788
589
412
444
371
344
335
200
77
26
-14
29
12
-24
38
23
-11
-44
-110
-155
-147
-194
-199
-221
-261
-294
-290
-258
-291
-289
-302
-306
-337
-338
-348
-345
-352
-353
-392
-399
-393
-375
-344
-369
-360
-306
-356
-364
-390
-389
-349
-314
-122
356
935
1319
1437
1337
1081
846
622
419
360
323
284
274
220
126
2
-33
-13
28
36
17
30
25
19
-50
-116
-154
-159
-163
-204
-257
-262
-256
-276
-318
-327
-326
-332
-357
-351
-321
-358
-333
-344
-347
-380
-374
-361
-342
-331
-338
-349
-349
-311
-362
-223
84
606
1047
1275
1247
1032
785
569
379
278
254
218
216
180
79
4
2
16
2
47
46
89
16
-41
-33
-53
-111
-134
-156
-159
-208
-235
-237
-220
-216
-268
-262
-257
-314
-303
-297
-310
-330
-340
-342
-301
-257
-295
-302
-318
-337
-343
-239
84
562
962
1146
1136
979
784
563
365
262
252
269
264
185
110
73
0
-12
23
46
51
48
24
28
-43
-93
-158
-163
-187
-210
-183
-219
-273
-273
-268
-292
-311
-297
-313
-304
-309
-348
-317
-316
-324
-312
-327
-349
-304
-340
-272
63
502
845
1019
1014
900
708
522
405
308
318
303
310
276
210
75
25
9
-23
15
34
26
18
-45
-73
-79
-108
-167
-184
-250
-276
-315
-317
-280
-316
-305
-369
-355
-361
-400
-373
-379
-357
-378
-399
-403
-383
-364
-374
-374
-385
-378
-370
-403
-423
-413
-405
-413
-387
-346
-334
-364
-354
-321
-355
-339
-225
160
657
958
1091
1005
810
607
423
278
251
231
214
238
189
95
29
-16
-69
-35
-26
-44
-49
-58
-43
-65
-86
-94
-120
-142
-188
-200
-235
-205
-251
-204
-227
-277
-253
-250
-278
-309
-254
-230
-269
-298
-260
-270
-274
-251
-283
-266
-268
-253
-253
-250
-260
-219
-244
-262
-255
-239
-230
-147
163
552
870
998
976
762
557
407
257
151
128
137
122
82
2
-22
-43
-66
-32
-5
16
-3
22
-5
-46
-71
-78
-77
-105
-135
-205
-206
-178
-181
-191
-208
-205
-181
-167
-220
-200
-166
-201
-188
-172
-174
-178
-177
-182
-199
-204
-207
-197
-158
-182
-177
-146
-171
-179
-119
82
508
902
1035
996
834
659
441
275
173
96
85
105
90
16
-55
-65
8
67
26
60
66
62
50
20
0
-46
-73
-118
-121
-100
-119
-132
-138
-105
-139
-173
-142
-157
-142
-165
-144
-155
-170
-163
-115
-125
-132
-149
-172
-170
-175
-153
-132
-92
50
417
819
1051
1117
1042
846
608
405
293
225
203
237
215
144
88
18
-1
-3
11
24
76
59
36
-7
-19
2
-73
-98
-132
-169
-163
-146
-185
-188
-166
-153
-168
-209
-200
-212
-191
-207
-196
-232
-218
-209
-204
-192
-181
-180
-168
-177
-177
-8
315
742
1065
1131
1057
906
697
506
338
265
243
193
228
173
69
16
-38
-57
-49
-32
18
15
-9
-39
-50
-67
-92
-89
-114
-149
-181
-191
-200
-202
-220
-195
-238
-218
-206
-232
-230
-206
-203
-212
-182
-199
-178
-222
-178
-116
154
640
970
1086
1097
907
699
501
331
280
239
232
202
184
94
30
-35
-73
-59
-40
-22
-8
24
25
-49
-84
-146
-174
-162
-206
-214
-228
-245
-220
-243
-257
-214
-232
-232
-290
-288
-237
-218
63
465
791
1006
945
771
574
414
287
232
178
161
123
64
-20
-101
-73
-76
-75
-75
-42
-17
-65
-126
-142
-183
-193
-192
-222
-243
-261
-266
-246
-265
-307
-301
-253
-268
-275
-265
-318
-345
-305
-240
-29
342
686
865
799
627
470
338
209
162
129
105
87
37
-32
-142
-143
-116
-114
-72
-61
-101
-90
-142
-186
-189
-230
-256
-250
-245
-303
-322
-318
-271
-255
-296
-308
-306
-341
-354
-336
-310
-293
-299
-320
-333
-331
-342
-337
-303
-314
-306
-311
-317
-296
-321
-285
-329
-300
-296
-283
-248
-272
-294
-265
-289
-244
-130
187
564
804
826
727
539
393
216
130
99
126
170
127
82
-19
-50
-32
-51
-65
0
39
-26
-55
-47
-53
-75
-106
-147
-161
-200
-199
-219
-236
-187
-205
-191
-222
-208
-213
-242
-167
-167
-241
-218
-192
-179
-163
-166
-182
-193
-205
-181
-210
-197
-165
-159
-180
-203
-186
-173
-181
-159
-199
-183
-132
-129
-57
208
539
782
862
782
590
395
259
172
123
82
114
107
97
23
-36
-9
-57
-32
1
46
9
34
15
-28
-39
-113
-122
-115
-109
-155
-135
-128
-93
-128
-104
-112
-136
-140
-136
-134
-115
-119
-143
-103
-140
-113
-101
-104
-115
-103
-115
-145
-141
-130
-121
-139
-121
-94
-101
-122
-103
-37
190
544
827
966
840
672
469
276
143
62
122
94
74
86
18
-7
27
71
51
63
54
93
56
24
-28
-44
-84
-66
-80
-84
-83
-93
-93
-65
-152
-147
-151
-112
-120
-163
-114
-97
-115
-127
-102
-97
-124
-93
-91
-70
-68
-83
-98
-100
-75
-109
-166
-125
-78
88
483
923
1077
1105
1003
762
537
397
265
179
214
247
221
186
157
23
-27
-13
-1
32
34
-22
-8
10
-30
-54
-85
-127
-126
-109
-150
-200
-171
-140
-119
-128
-127
-133
-140
-151
-171
-185
-203
-163
-149
-164
-158
-128
-185
-192
-172
-121
-162
-173
-152
-132
-130
-151
-156
-126
-99
-20
278
746
1143
1281
1199
972
758
527
333
250
200
208
203
207
154
45
-29
-21
-16
-17
7
24
55
-17
-16
-21
-129
-155
-181
-235
-239
-214
-232
-230
-212
-219
-261
-233
-225
-208
-124
-208
-218
-223
-219
-209
-185
-211
-210
-128
-147
-180
-181
-176
-172
-178
-176
-158
-186
-53
174
559
986
1208
1176
1029
815
556
337
212
161
142
108
71
51
-7
-57
-60
-3
19
-11
65
-13
-21
-3
-41
-73
-94
-121
-149
-159
-173
-160
-221
-183
-201
-216
-220
-196
-212
-245
-231
-213
-197
-186
-186
-202
-234
-230
-177
-179
-199
-198
-186
-224
-141
8
461
909
1152
1231
1102
854
632
426
270
146
99
106
72
-25
-22
-48
-71
-49
79
96
69
69
-14
-7
-14
-64
-90
-117
-144
-143
-184
-200
-205
-211
-194
-197
-223
-212
-245
-214
-215
-192
-233
-229
-257
-185
-160
-216
-207
-181
-207
-150
-8
329
868
1237
1348
1275
1107
860
635
459
333
282
252
221
178
80
65
41
8
-13
13
7
40
21
-27
-25
-108
-69
-108
-194
-168
-191
-195
-244
-258
-236
-234
-305
-248
-231
-207
-200
-257
-289
-246
-243
-308
-291
-276
-283
-259
-206
-221
-237
-290
-258
-201
-214
-66
319
932
1315
1431
1372
1148
886
667
486
333
343
306
259
198
164
59
33
-22
-6
41
29
16
-15
-32
9
-122
-98
-128
-156
-176
-162
-217
-219
-255
-289
-265
-299
-274
-254
-260
-287
-255
-303
-283
-300
-300
-300
-283
-273
-272
-246
-282
-289
-233
-281
-267
-17
475
941
1284
1397
1299
1068
831
561
387
309
283
323
304
209
97
40
4
-13
-34
-6
19
4
22
-25
-65
-114
-146
-167
-172
-194
-241
-286
-258
-250
-335
-288
-271
-277
-242
-287
-303
-307
-261
-209
-244
-253
-170
-181
-180
-186
-182
-181
-230
-227
-167
-144
-54
279
799
1188
1355
1282
1053
767
532
351
202
144
129
67
26
-24
-148
-165
-142
-82
-20
-6
-29
-107
-137
-166
-175
-191
-211
-297
-288
-270
-299
-291
-332
-301
-251
-272
-292
-322
-347
-341
-350
-324
-341
-371
-361
-307
-289
-246
-267
-326
-328
-285
-84
322
871
1242
1312
1261
1029
757
518
337
236
236
191
157
120
49
-31
-17
35
20
67
40
-17
9
-39
-101
-125
-162
-205
-209
-244
-233
-248
-301
-235
-228
-330
-310
-280
-259
-320
-349
-339
-401
-346
-321
-313
-312
-312
-291
-288
-237
-83
296
852
1292
1448
1370
1210
968
694
505
361
333
366
360
342
187
64
-12
-37
5
-5
38
-4
7
-12
-64
-158
-175
-194
-261
-260
-298
-359
-349
-347
-360
-338
-322
-339
-382
-358
-349
-390
-363
-364
-400
-389
-358
-382
-398
-344
-386
-375
-370
-369
-380
-399
-423
-395
-396
-368
-355
-299
-247
139
764
1257
1523
1498
1283
1014
730
477
337
339
290
277
266
178
95
-24
-78
-22
-36
-13
-35
-39
-55
-80
-101
-150
-198
-238
-255
-325
-351
-332
-345
-387
-409
-338
-375
-329
-333
-345
-387
-418
-411
-438
-356
-388
-428
-399
-378
-361
-371
-368
-380
-342
-308
-328
-360
-321
-286
14
562
1094
1332
1372
1182
896
639
392
180
153
164
145
148
105
-35
-107
-128
-118
-49
-22
-58
-91
-77
-62
-123
-182
-191
-200
-232
-277
-299
-311
-290
-284
-364
-374
-345
-317
-293
-321
-370
-381
-340
-348
-352
-329
-345
-336
-330
-365
-347
-317
-308
-300
-293
-274
-238
126
616
1097
1297
1282
1020
753
489
246
118
76
49
31
7
-9
-87
-128
-101
-41
35
21
2
-8
-40
-91
-92
-134
-189
-188
-201
-230
-262
-267
-246
-225
-293
-285
-273
-302
-292
-305
-295
-241
-235
-243
-282
-303
-236
-232
-249
-228
-228
-231
-185
57
522
1013
1310
1329
1161
889
659
415
273
271
243
193
179
121
25
-71
-63
-34
-54
-10
7
6
-29
-35
-92
-94
-139
-161
-214
-245
-214
-226
-274
-198
-259
-214
-265
-284
-285
-302
-269
-262
-297
-295
-256
-274
-292
-244
-205
-287
-259
-265
-257
-229
-216
-242
-251
-230
-180
60
561
1091
1342
1360
1230
993
665
479
337
245
274
281
218
167
77
4
-32
-55
-31
49
15
16
-66
-69
-74
-88
-146
-157
-186
-200
-234
-258
-274
-222
-289
-249
-272
-242
-270
-246
-247
-245
-302
-278
-272
-289
-214
-236
-250
-248
-229
-237
-247
-225
-263
-241
-219
-71
330
830
1256
1374
1248
1001
773
516
369
266
208
176
175
94
-18
-53
-20
10
16
14
16
30
18
-26
-43
-83
-134
-151
-201
-207
-215
-232
-252
-237
-264
-253
-245
-219
-284
-273
-232
-251
-277
-233
-243
-230
-264
-235
-268
-199
-187
-227
-218
-222
-190
83
567
1068
1340
1375
1223
992
748
496
303
217
183
210
184
111
33
-13
13
42
15
37
55
11
3
-51
-61
-121
-132
-145
-184
-236
-237
-212
-211
-241
-264
-231
-245
-273
-243
-253
-280
-263
-246
-245
-241
-239
-252
-245
-213
-245
-180
-242
-255
-187
152
678
1220
1452
1439
1268
1068
840
586
471
394
385
377
331
243
146
92
-54
-31
31
36
33
45
-16
-60
-108
-117
-109
-186
-175
-254
-264
-318
-320
-244
-245
-285
-276
-240
-277
-295
-271
-286
-353
-353
-353
-368
-326
-365
-300
-263
-287
-360
-317
-304
-327
-328
-286
-304
-138
261
877
1339
1549
1503
1308
1066
756
533
435
358
311
314
295
219
90
4
-39
-6
43
0
-12
-63
-72
-58
-115
-94
-122
-210
-261
-306
-318
-308
-303
-328
-355
-356
-342
-372
-383
-352
-348
-377
-349
-378
-372
-359
-360
-313
-342
-339
-322
-346
-345
-345
-371
-176
183
755
1247
1460
1465
1305
1007
710
493
323
271
281
246
132
54
-9
-73
-57
-36
-4
22
29
-10
-55
-53
-58
-127
-180
-235
-270
-288
-342
-364
-339
-320
-326
-345
-327
-344
-295
-316
-326
-319
-289
-302
-317
-349
-331
-324
-294
-332
-293
-107
435
926
1302
1471
1434
1178
885
639
468
342
321
241
191
165
84
-64
-22
-21
21
24
46
70
-27
-22
-36
-83
-163
-193
-198
-240
-267
-280
-314
-318
-324
-341
-285
-302
-359
-340
-332
-324
-350
-336
-324
-340
-317
-349
-333
-300
-90
350
946
1364
1562
1521
1300
1023
759
580
470
391
414
385
201
170
95
43
-5
-3
29
43
13
1
-52
-34
-47
-93
-162
-227
-245
-233
-243
-278
-312
-336
-317
-311
-342
-385
-353
-393
-370
-369
-401
-392
-373
-376
-389
-409
-378
-313
-53
430
985
1353
1445
1309
1089
847
608
492
443
474
448
386
273
82
-17
-66
-48
-22
28
11
-1
-13
-75
-117
-164
-190
-228
-242
-285
-359
-366
-299
-338
-334
-349
-383
-372
-369
-406
-390
-389
-364
-371
-387
-366
-406
-404
-410
-407
-356
-40
453
932
1202
1260
1127
864
670
504
415
393
327
285
240
100
-22
-97
-80
-61
-58
-33
-25
-63
-110
-156
-185
-236
-227
-252
-284
-313
-327
-350
-371
-361
-394
-395
-397
-390
-416
-410
-422
-428
-419
-416
-407
-399
-412
-424
-408
-379
-410
-419
-410
-459
-425
-259
98
608
989
1048
957
808
598
417
274
228
218
203
191
88
-37
-95
-123
-120
-81
-31
-99
-95
-115
-182
-198
-213
-258
-254
-318
-361
-350
-339
-315
-359
-377
-377
-411
-373
-378
-407
-428
-414
-406
-408
-375
-408
-377
-396
-416
-433
-426
-382
-393
-384
-367
-391
-388
-384
-401
-375
-382
-330
-359
-275
62
534
901
1023
924
715
527
365
261
218
199
205
199
154
57
-25
-78
-99
-69
-27
-25
-55
-39
-22
-59
-96
-135
-154
-166
-224
-266
-261
-237
-257
-279
-262
-267
-243
-245
-271
-272
-269
-263
-280
-258
-257
-279
-224
-185
-236
-246
-223
-239
-176
-217
-243
-216
-154
60
442
811
967
928
789
620
406
294
212
210
237
171
149
88
16
4
-53
-55
-32
-31
8
-37
7
-56
-81
-116
-106
-158
-194
-176
-201
-216
-187
-173
-180
-195
-180
-169
-193
-199
-188
-198
-182
-210
-179
-188
-142
27
370
721
898
895
784
585
394
251
157
163
148
134
91
18
-49
-54
-41
-38
1
-10
-26
7
-41
-70
-62
-88
-114
-182
-198
-190
-190
-180
-210
-198
-178
-171
-193
-211
-204
-172
-223
-223
-198
-178
-187
-178
-13
320
712
947
988
858
656
498
311
163
159
162
136
116
46
-29
-26
-36
-45
12
27
3
30
4
-76
-90
-109
-135
-149
-189
-210
-230
-238
-232
-205
-225
-189
-214
-227
-224
-187
-187
-198
-234
-207
-215
-181
-123
11
375
795
1035
1079
989
725
518
353
250
196
183
251
224
126
-24
-65
-61
-43
-31
-21
-16
-44
-14
-18
-92
-106
-147
-187
-213
-207
-211
-234
-227
-204
-253
-265
-242
-233
-250
-228
-260
-258
-272
-259
-220
-248
-249
-227
-248
-231
-202
-248
-242
-229
-215
-225
-250
-251
-155
94
558
937
1141
1094
909
715
473
299
202
180
131
126
93
81
16
-46
-106
-85
-53
-59
4
-39
-107
-69
-112
-137
-161
-170
-198
-227
-201
-204
-241
-245
-250
-243
-228
-255
-227
-213
-176
-200
-262
-255
-264
-253
-220
-226
-235
-219
-198
-200
-215
-202
-225
-247
-219
-132
62
458
857
1036
933
791
560
330
157
55
22
58
40
48
-3
-51
-63
-86
-53
-23
-15
-2
-11
-14
-57
-47
-87
-160
-140
-142
-199
-191
-193
-213
-175
-165
-155
-161
-205
-151
-170
-215
-165
-165
-207
-182
-197
-182
-117
-104
-148
-177
-180
-141
-125
-14
305
680
893
948
810
618
433
231
135
83
85
83
19
1
-1
10
-2
-40
-5
22
21
4
-10
-44
-35
-61
-110
-133
-148
-151
-150
-91
-89
-188
-151
-178
-96
-154
-146
-144
-162
-170
-148
-121
-149
-111
-144
-135
-156
-142
-126
-148
-135
-46
206
615
972
1120
1037
889
642
417
294
234
160
147
145
142
86
10
16
-15
-23
-38
20
8
-12
-29
-35
-66
-64
-73
-111
-84
-92
-112
-157
-157
-183
-187
-163
-130
-205
-179
-158
-168
-173
-170
-188
-174
-174
-132
-144
-150
-125
-170
-178
-133
-169
-176
-112
-51
158
555
1006
1179
1183
998
746
539
387
196
179
167
130
120
77
58
-7
-20
-20
-11
44
62
20
20
-20
-83
-117
-127
-115
-143
-140
-163
-187
-171
-186
-207
-227
-217
-213
-178
-201
-234
-195
-183
-212
-208
-199
-165
-162
-153
-179
-208
-217
-161
-190
-191
73
522
938
1165
1227
1110
898
650
426
284
208
112
86
83
21
-3
-37
-68
-7
16
25
40
37
1
-44
-32
-57
-87
-117
-165
-182
-192
-209
-233
-246
-226
-209
-211
-203
-210
-234
-218
-218
-240
-248
-225
-177
-201
-231
-195
-143
-168
-149
-4
376
884
1168
1222
1152
949
679
435
252
182
128
109
36
11
-26
-51
-44
8
78
60
40
65
7
-7
-56
-74
-135
-183
-157
-162
-191
-222
-233
-212
-210
-208
-210
-230
-261
-239
-252
-269
-248
-233
-183
-183
-229
-214
-89
326
829
1168
1296
1268
1088
862
616
440
299
251
181
210
131
99
44
-34
-18
-22
-1
-6
-4
-36
-40
-77
-102
-115
-132
-185
-265
-260
-218
-263
-310
-328
-282
-279
-240
-249
-311
-280
-284
-309
-319
-319
-315
-310
-283
-295
-265
-242
-236
-295
-272
-269
-174
99
594
1078
1379
1399
1236
986
715
518
366
342
280
265
215
120
69
19
-2
-12
-27
-10
0
1
1
-42
-94
-139
-139
-170
-216
-227
-194
-252
-310
-301
-298
-296
-268
-310
-333
-324
-324
-356
-271
-286
-366
-356
-339
-350
-327
-306
-255
-255
-312
-329
-303
-235
-88
322
918
1287
1333
1286
1081
800
550
332
298
221
146
162
83
-13
-65
-62
-47
3
27
-9
-3
2
-73
-116
-146
-153
-165
-183
-245
-212
-260
-299
-284
-310
-297
-267
-274
-295
-329
-332
-303
-322
-299
-279
-324
-301
-301
-312
-327
-303
-294
-328
-228
101
665
1092
1309
1293
1112
839
599
423
253
169
142
103
55
8
-96
-128
-21
41
-7
16
29
-17
-26
-83
-110
-147
-178
-206
-213
-233
-238
-248
-243
-309
-309
-282
-328
-331
-306
-288
-325
-290
-302
-279
-281
-274
-259
-273
-301
-233
18
511
1031
1312
1328
1183
947
716
499
357
245
218
186
165
110
25
-47
-89
-39
-2
10
3
-50
-99
-70
-79
-126
-153
-172
-232
-266
-333
-288
-272
-305
-299
-292
-322
-379
-312
-307
-357
-344
-327
-344
-293
-316
-333
-316
-315
-311
-331
-281
12
528
993
1308
1327
1158
891
688
490
345
277
235
227
226
126
24
-50
-106
-108
-23
-35
-63
-29
-102
-79
-99
-189
-198
-184
-201
-222
-264
-313
-341
-324
-329
-321
-313
-351
-380
-368
-363
-368
-400
-408
-409
-340
-273
-356
-357
-323
-340
-328
-309
-166
289
850
1155
1252
1212
1016
681
456
327
222
162
178
153
84
36
-105
-165
-109
-84
-90
-89
-115
-79
-82
-119
-204
-233
-213
-262
-291
-307
-327
-358
-381
-333
-346
-368
-381
-325
-306
-335
-358
-348
-381
-373
-321
-346
-346
-344
-333
-278
-241
38
553
996
1184
1134
984
722
492
296
161
99
90
90
73
-74
-161
-165
-180
-122
-65
-21
-35
-38
-67
-163
-198
-162
-182
-239
-296
-292
-277
-277
-282
-303
-318
-313
-283
-308
-329
-308
-284
-293
-269
-265
-255
-236
-249
-227
-78
361
852
1132
1153
1017
777
566
341
179
107
123
148
65
-28
-88
-101
-79
-38
-62
-12
-1
-25
-84
-123
-127
-133
-141
-165
-212
-232
-256
-260
-263
-261
-268
-299
-291
-280
-222
-238
-307
-289
-262
-284
-270
-241
-151
194
690
990
1126
1114
909
699
507
366
262
276
278
216
181
84
-48
-111
-65
-52
-56
-47
-12
-18
-81
-95
-146
-169
-143
-189
-222
-257
-259
-250
-291
-277
-271
-271
-270
-298
-280
-282
-282
-300
-258
-276
-299
-256
-271
-295
-256
-267
-243
-256
-229
-248
-274
-314
-213
50
521
905
1138
1170
983
722
509
365
283
246
242
197
167
110
13
-48
-74
-59
-48
-39
-10
0
-32
-65
-65
-129
-169
-189
-234
-221
-234
-226
-224
-257
-255
-254
-262
-267
-288
-253
-255
-309
-250
-255
-269
-226
-234
-262
-266
-220
-204
-234
-264
-205
-222
-156
106
621
961
1121
1064
946
683
419
300
256
181
173
157
128
53
-37
-95
-71
-45
-18
14
18
36
-21
-42
-97
-124
-159
-189
-214
-223
-224
-241
-203
-191
-245
-256
-268
-227
-214
-248
-252
-237
-222
-232
-232
-232
-237
-234
-223
-215
-213
-200
-80
317
772
1050
1159
1079
819
601
442
282
223
216
170
145
71
-29
-55
-49
21
52
47
10
19
20
-55
-110
-88
-83
-142
-147
-172
-213
-207
-197
-200
-228
-241
-267
-283
-249
-235
-262
-247
-244
-216
-208
-207
-190
-213
-199
-236
-197
-162
67
584
1017
1191
1221
1084
874
589
430
346
324
302
306
252
172
24
-15
-38
-51
-55
-27
-28
-29
-55
-66
-94
-81
-140
-209
-214
-206
-204
-265
-237
-246
-289
-281
-280
-271
-253
-245
-272
-280
-300
-313
-277
-268
-263
-276
-254
-261
-257
-251
-261
-235
-75
365
885
1207
1242
1176
973
710
489
335
323
253
228
223
129
18
-36
-61
-74
-48
-34
-9
-34
-63
-81
-127
-160
-186
-197
-259
-286
-275
-280
-275
-316
-330
-309
-314
-320
-267
-324
-299
-283
-322
-296
-294
-261
-266
-268
-263
-272
-257
-219
-40
494
1097
1621
1795
1957
2046
2046
2039
1908
1127
-28
-321
-187
58
221
335
443
518
509
447
317
160
24
-91
-89
-53
-21
1
25
148
223
279
340
280
76
-154
-390
-614
-812
-945
-1051
-1112
-1156
-1097
-1056
-980
-978
-930
-885
-878
-761
-756
-770
-693
-636
-577
-580
-360
124
601
978
1041
866
705
427
173
14
-5
-47
-20
-28
-108
-172
-219
-163
-157
-136
-85
-63
-94
-143
-172
-217
-221
-224
-252
-298
-288
-297
-278
-276
-275
-275
-272
-238
-239
-267
-287
-300
-298
-266
-277
-229
-248
-239
-213
-196
-15
505
998
1209
1268
1140
834
603
413
251
178
167
140
110
72
8
-28
-79
-58
-14
-17
18
-21
-37
-93
-141
-169
-146
-161
-191
-214
-212
-226
-246
-240
-223
-243
-262
-296
-269
-255
-250
-173
-240
-210
-176
-224
-235
-223
-168
43
499
1001
1239
1292
1156
904
656
455
360
287
253
258
226
150
50
-12
-64
-77
10
-3
-21
-29
-33
-22
-60
-128
-125
-167
-198
-231
-212
-206
-228
-279
-209
-215
-259
-231
-233
-227
-255
-276
-258
-257
-250
-203
-229
-229
-220
-240
-250
-204
-224
-213
-75
287
781
1135
1293
1177
943
693
530
362
279
321
413
548
607
537
454
346
328
302
246
240
252
233
153
44
-1
-77
-131
-238
-280
-303
-363
-409
-428
-527
-609
-625
-628
-659
-655
-721
-795
-825
-754
-669
-698
-694
-584
-543
-527
-456
-407
-389
-282
69
542
860
992
941
775
566
350
185
125
134
131
109
38
-3
-43
-110
-54
-14
8
26
26
0
-25
-64
-94
-105
-146
-163
-159
-186
-204
-218
-196
-221
-242
-221
-217
-226
-237
-258
-214
-195
-178
-224
-202
-224
-224
-207
-167
97
483
758
848
766
584
362
223
96
115
133
85
55
-4
-57
-129
-179
-106
-70
-79
-40
-41
-61
-116
-110
-122
-156
-149
-169
-215
-197
-201
-192
-207
-210
-202
-224
-203
-209
-197
-220
-211
-166
-185
-184
-152
63
410
680
724
693
590
331
187
119
112
93
93
109
14
-33
-97
-134
-167
-99
-87
-84
-44
-42
-73
-19
-113
-128
-121
-143
-185
-193
-194
-165
-164
-180
-153
-154
-206
-211
-175
-180
-171
-175
-147
-149
-185
-208
-195
-150
-125
-154
-159
-169
-147
-162
-148
-53
149
536
737
809
754
579
393
239
179
92
96
133
104
107
26
-72
-79
-85
-77
5
-11
-13
-55
-62
-59
-105
-87
-94
-138
-140
-154
-153
-174
-159
-130
-139
-131
-118
-111
-155
-129
-113
-137
-137
-126
-129
-126
-167
-159
-108
-122
-119
-118
-97
-115
-132
-109
-119
-85
20
329
671
866
921
765
544
344
181
93
82
107
130
89
51
-22
-70
-50
-44
-36
-16
3
-37
7
-30
-54
-59
-78
-83
-83
-75
-105
-166
-150
-148
-132
-141
-120
-146
-159
-116
-173
-139
-96
-103
-97
-121
-124
-135
-115
-120
-107
-140
-121
-114
-67
-67
166
503
772
883
825
666
413
247
142
92
38
35
62
26
-66
-28
3
-40
8
11
31
15
22
-2
-68
-80
-96
-108
-78
-104
-131
-120
-126
-129
-108
-94
-110
-126
-97
-101
-140
-109
-77
-80
-113
-101
-79
-65
-120
-105
-65
-116
-78
-46
-46
197
615
907
983
911
715
525
361
198
121
93
94
95
106
50
-12
-66
-15
8
-39
-8
15
-3
-10
-10
-4
-22
-152
-170
-136
-138
-151
-131
-184
-149
-85
-182
-134
-136
-116
-126
-162
-186
-193
-214
-138
-118
-146
-157
-141
-147
-149
-156
-112
-123
-87
-65
207
658
1025
1140
1059
838
604
338
170
163
159
153
165
154
47
6
10
-26
-25
-12
-31
-17
-6
-24
-38
-113
-85
-45
-112
-158
-175
-182
-162
-146
-209
-226
-177
-141
-142
-208
-226
-201
-215
-168
-153
-171
-142
-171
-171
-142
-135
-154
-182
-164
-160
-158
-93
22
326
778
1061
1181
1062
802
457
247
171
64
46
74
118
63
-34
-97
-90
-21
1
8
-10
-16
-50
-58
-85
-83
-86
-137
-148
-149
-189
-196
-173
-175
-189
-190
-190
-147
-134
-181
-216
-192
-160
-183
-192
-191
-155
-163
-190
-194
-164
-183
-116
74
389
821
1035
1106
972
736
528
319
114
43
46
54
54
-44
-76
-67
-108
-47
25
-6
10
17
-55
-55
-54
-57
-148
-125
-116
-148
-178
-172
-142
-164
-151
-154
-202
-192
-147
-151
-215
-174
-177
-192
-216
-154
-194
-172
-103
163
640
1030
1187
1142
991
737
449
255
171
188
148
167
144
85
-34
-68
-65
-12
-65
-39
35
-22
-52
-65
-86
-110
-140
-118
-142
-216
-198
-233
-238
-239
-202
-168
-208
-211
-220
-199
-247
-207
-225
-226
-189
-225
-157
-148
-200
-187
-163
-117
178
653
1040
1219
1181
992
718
521
337
244
219
212
181
129
58
-43
-56
-49
-77
-25
29
-12
-46
-67
-63
-77
-143
-172
-185
-196
-228
-225
-220
-265
-239
-231
-224
-214
-213
-227
-265
-277
-266
-211
-229
-254
-228
-226
-240
-219
-221
-224
-197
28
455
870
1174
1196
998
743
485
245
129
126
143
113
62
20
-79
-64
-77
-65
-11
-4
20
1
-37
-56
-118
-174
-148
-235
-186
-184
-197
-261
-257
-219
-191
-220
-229
-243
-289
-240
-220
-247
-265
-277
-261
-275
-233
-170
-94
263
753
1021
1151
959
724
535
330
122
76
132
92
91
-39
-58
-49
-48
17
60
39
17
28
-53
-111
-129
-102
-105
-160
-207
-218
-240
-267
-186
-213
-245
-251
-230
-223
-253
-226
-206
-235
-257
-225
-178
25
528
929
1073
1020
815
539
394
305
221
181
188
208
116
82
-13
-162
-138
-44
-39
-84
-110
-71
-77
-99
-104
-143
-256
-255
-252
-321
-329
-288
-322
-312
-293
-282
-314
-245
-267
-296
-325
-310
-277
-319
-295
-248
-310
-281
-302
-279
-253
-266
-342
-299
-317
-338
-218
105
529
862
980
874
645
442
289
182
97
99
157
163
54
-62
-99
-118
-155
-103
-20
-40
-70
-96
-79
-114
